timestamp_ms_device,ppg_finger1,ppg_finger2,ppg_finger3
1748872398640,2076,2267,2468
1748872398650,2045,2268,2523
1748872398660,2082,2288,2560
1748872398670,2184,2337,2545
1748872398680,2197,2368,2581
1748872398690,2268,2341,2614
1748872398700,2290,2375,2590
1748872398710,2337,2427,2575
1748872398720,2369,2473,2547
1748872398730,2376,2500,2574
1748872398740,2402,2512,2576
1748872398750,2398,2432,2541
1748872398760,2409,2515,2568
1748872398770,2463,2453,2559
1748872398780,2493,2489,2502
1748872398790,2474,2496,2506
1748872398800,2486,2516,2472
1748872398810,2551,2540,2437
1748872398820,2585,2473,2382
1748872398830,2574,2443,2379
1748872398840,2549,2513,2266
1748872398850,2504,2421,2233
1748872398860,2545,2472,2274
1748872398870,2539,2394,2229
1748872398880,2510,2450,2196
1748872398890,2571,2384,2127
1748872398900,2511,2352,2034
1748872398910,2525,2371,1975
1748872398920,2471,2339,1972
1748872398930,2475,2290,1953
1748872398940,2412,2327,1915
1748872398950,2440,2236,1819
1748872398960,2372,2227,1788
1748872398970,2353,2241,1792
1748872398980,2329,2165,1766
1748872398990,2294,2155,1701
1748872399000,2247,2080,1645
1748872399010,2192,2036,1642
1748872399020,2221,2101,1598
1748872399030,2115,2021,1585
1748872399040,2103,1990,1503
1748872399050,2049,1972,1506
1748872399060,2035,1909,1487
1748872399070,1959,1856,1546
1748872399080,1959,1887,1498
1748872399090,1940,1879,1492
1748872399100,1906,1833,1489
1748872399110,1856,1776,1493
1748872399120,1833,1767,1498
1748872399130,1765,1754,1514
1748872399140,1758,1768,1539
1748872399150,1692,1682,1515
1748872399160,1743,1650,1603
1748872399170,1623,1665,1554
1748872399180,1685,1653,1615
1748872399190,1576,1685,1689
1748872399200,1629,1607,1654
1748872399210,1601,1664,1704
1748872399220,1571,1639,1748
1748872399230,1581,1575,1839
1748872399240,1543,1606,1830
1748872399250,1539,1548,1901
1748872399260,1548,1621,1920
1748872399270,1531,1573,1939
1748872399280,1586,1589,1980
1748872399290,1590,1629,2070
1748872399300,1531,1614,2150
1748872399310,1549,1647,2141
1748872399320,1606,1614,2238
1748872399330,1621,1656,2190
1748872399340,1578,1717,2238
1748872399350,1684,1706,2345
1748872399360,1680,1687,2310
1748872399370,1671,1789,2428
1748872399380,1773,1775,2459
1748872399390,1792,1766,2501
1748872399400,1783,1775,2485
1748872399410,1860,1824,2562
1748872399420,1822,1870,2499
1748872399430,1875,1873,2580
1748872399440,1964,1973,2582
1748872399450,1931,1972,2542
1748872399460,1997,2000,2543
1748872399470,1996,2037,2638
1748872399480,2055,2016,2577
1748872399490,2122,2096,2638
1748872399500,2195,2107,2566
1748872399510,2187,2138,2607
1748872399520,2191,2161,2599
1748872399530,2242,2259,2514
1748872399540,2256,2262,2483
1748872399550,2293,2295,2534
1748872399560,2377,2314,2436
1748872399570,2344,2353,2468
1748872399580,2386,2317,2458
1748872399590,2452,2356,2365
1748872399600,2481,2368,2400
1748872399610,2492,2425,2296
1748872399620,2466,2409,2297
1748872399630,2478,2451,2214
1748872399640,2519,2425,2170
1748872399650,2536,2497,2177
1748872399660,2500,2497,2091
1748872399670,2512,2436,2093
1748872399680,2590,2496,1963
1748872399690,2550,2468,2002
1748872399700,2497,2516,1874
1748872399710,2543,2505,1927
1748872399720,2544,2510,1800
1748872399730,2558,2457,1803
1748872399740,2512,2461,1716
1748872399750,2485,2427,1701
1748872399760,2489,2448,1660
1748872399770,2425,2425,1629
1748872399780,2380,2462,1587
1748872399790,2408,2384,1619
1748872399800,2374,2441,1520
1748872399810,2329,2400,1521
1748872399820,2331,2342,1582
1748872399830,2253,2321,1528
1748872399840,2205,2289,1502
1748872399850,2225,2237,1502
1748872399860,2171,2305,1547
1748872399870,2080,2236,1449
1748872399880,2109,2177,1543
1748872399890,2072,2201,1483
1748872399900,1990,2095,1491
1748872399910,2002,2067,1515
1748872399920,1961,2038,1598
1748872399930,1929,2040,1589
1748872399940,1819,1975,1631
1748872399950,1872,2002,1587
1748872399960,1789,1948,1643
1748872399970,1764,1897,1650
1748872399980,1739,1896,1757
1748872399990,1745,1882,1808
1748872400000,1655,1844,1770
1748872400010,1613,1852,1888
1748872400020,1677,1796,1898
1748872400030,1580,1813,1885
1748872400040,1616,1787,1949
1748872400050,1537,1691,2046
1748872400060,1560,1680,2109
1748872400070,1565,1704,2148
1748872400080,1547,1696,2175
1748872400090,1555,1625,2216
1748872400100,1582,1660,2269
1748872400110,1596,1573,2249
1748872400120,1576,1640,2329
1748872400130,1578,1564,2385
1748872400140,1588,1579,2392
1748872400150,1577,1607,2397
1748872400160,1635,1584,2509
1748872400170,1639,1601,2454
1748872400180,1596,1576,2560
1748872400190,1701,1618,2572
1748872400200,1726,1575,2604
1748872400210,1739,1635,2590
1748872400220,1782,1659,2577
1748872400230,1730,1686,2580
1748872400240,1847,1683,2569
1748872400250,1816,1637,2584
1748872400260,1894,1663,2600
1748872400270,1930,1690,2613
1748872400280,1994,1797,2591
1748872400290,1991,1808,2610
1748872400300,2011,1803,2526
1748872400310,2049,1844,2567
1748872400320,2139,1841,2556
1748872400330,2140,1909,2486
1748872400340,2130,1879,2425
1748872400350,2188,1896,2445
1748872400360,2236,1982,2400
1748872400370,2308,1999,2342
1748872400380,2262,2065,2278
1748872400390,2340,2083,2248
1748872400400,2407,2129,2253
1748872400410,2433,2082,2164
1748872400420,2402,2154,2188
1748872400430,2413,2166,2068
1748872400440,2447,2195,2047
1748872400450,2460,2195,2007
1748872400460,2516,2261,1928
1748872400470,2507,2319,1923
1748872400480,2572,2353,1882
1748872400490,2568,2305,1809
1748872400500,2521,2408,1755
1748872400510,2534,2416,1759
1748872400520,2559,2428,1668
1748872400530,2531,2443,1719
1748872400540,2521,2462,1618
1748872400550,2483,2422,1599
1748872400560,2562,2461,1604
1748872400570,2500,2492,1580
1748872400580,2488,2454,1508
1748872400590,2519,2477,1509
1748872400600,2398,2473,1543
1748872400610,2375,2490,1507
1748872400620,2425,2456,1543
1748872400630,2404,2524,1535
1748872400640,2296,2487,1481
1748872400650,2289,2507,1495
1748872400660,2277,2461,1481
1748872400670,2241,2504,1531
1748872400680,2201,2488,1535
1748872400690,2191,2429,1551
1748872400700,2169,2407,1611
1748872400710,2104,2447,1559
1748872400720,2040,2391,1678
1748872400730,2025,2364,1668
1748872400740,1962,2369,1735
1748872400750,1962,2357,1733
1748872400760,1894,2280,1778
1748872400770,1890,2281,1780
1748872400780,1827,2200,1808
1748872400790,1786,2217,1921
1748872400800,1734,2127,1957
1748872400810,1781,2095,1970
1748872400820,1749,2064,2006
1748872400830,1705,2079,2118
1748872400840,1654,2084,2070
1748872400850,1609,1985,2126
1748872400860,1618,1975,2246
1748872400870,1584,1938,2226
1748872400880,1608,1930,2281
1748872400890,1538,1939,2288
1748872400900,1594,1884,2378
1748872400910,1528,1861,2380
1748872400920,1505,1850,2471
1748872400930,1522,1746,2457
1748872400940,1520,1759,2533
1748872400950,1593,1745,2502
1748872400960,1527,1740,2545
1748872400970,1543,1675,2548
1748872400980,1602,1664,2594
1748872400990,1586,1703,2574
1748872401000,1641,1691,2639
1748872401010,1659,1620,2604
1748872401020,1641,1584,2588
1748872401030,1702,1644,2553
1748872401040,1695,1633,2612
1748872401050,1727,1629,2609
1748872401060,1788,1619,2599
1748872401070,1765,1571,2529
1748872401080,1824,1646,2505
1748872401090,1849,1606,2487
1748872401100,1901,1619,2460
1748872401110,1909,1660,2455
1748872401120,1984,1626,2370
1748872401130,1984,1675,2336
1748872401140,2084,1634,2384
1748872401150,2082,1653,2332
1748872401160,2167,1715,2271
1748872401170,2160,1684,2215
1748872401180,2196,1731,2170
1748872401190,2211,1746,2090
1748872401200,2303,1723,2071
1748872401210,2258,1785,2032
1748872401220,2307,1842,1997
1748872401230,2377,1865,1930
1748872401240,2351,1917,1921
1748872401250,2454,1884,1888
1748872401260,2491,1946,1864
1748872401270,2489,1932,1779
1748872401280,2515,2000,1702
1748872401290,2478,2019,1678
1748872401300,2533,2065,1631
1748872401310,2558,2075,1677
1748872401320,2491,2137,1604
1748872401330,2558,2151,1552
1748872401340,2595,2182,1595
1748872401350,2510,2196,1575
1748872401360,2589,2285,1522
1748872401370,2514,2293,1560
1748872401380,2502,2269,1471
1748872401390,2515,2329,1458
1748872401400,2478,2353,1510
1748872401410,2535,2336,1533
1748872401420,2487,2406,1542
1748872401430,2497,2402,1547
1748872401440,2465,2460,1511
1748872401450,2378,2409,1563
1748872401460,2338,2498,1567
1748872401470,2391,2473,1628
1748872401480,2273,2440,1652
1748872401490,2271,2503,1640
1748872401500,2284,2530,1714
1748872401510,2214,2534,1734
1748872401520,2156,2498,1702
1748872401530,2163,2508,1780
1748872401540,2086,2457,1836
1748872401550,2037,2458,1886
1748872401560,1995,2445,1918
1748872401570,1956,2431,1902
1748872401580,1957,2490,1987
1748872401590,1873,2420,1979
1748872401600,1921,2426,2054
1748872401610,1853,2419,2103
1748872401620,1794,2379,2126
1748872401630,1790,2394,2221
1748872401640,1726,2387,2204
1748872401650,1713,2288,2319
1748872401660,1666,2311,2377
1748872401670,1689,2258,2360
1748872401680,1657,2247,2351
1748872401690,1604,2265,2439
1748872401700,1588,2235,2463
1748872401710,1562,2152,2527
1748872401720,1530,2128,2555
1748872401730,1598,2158,2558
1748872401740,1516,2088,2516
1748872401750,1600,2008,2558
1748872401760,1593,1982,2605
1748872401770,1499,1992,2547
1748872401780,1596,1966,2632
1748872401790,1587,1883,2594
1748872401800,1591,1848,2638
1748872401810,1530,1826,2607
1748872401820,1625,1864,2614
1748872401830,1634,1844,2610
1748872401840,1595,1831,2576
1748872401850,1615,1770,2526
1748872401860,1693,1764,2460
1748872401870,1690,1669,2460
1748872401880,1674,1699,2427
1748872401890,1704,1721,2394
1748872401900,1772,1658,2415
1748872401910,1853,1617,2391
1748872401920,1873,1645,2271
1748872401930,1910,1634,2258
1748872401940,1960,1649,2199
1748872401950,1973,1570,2146
1748872401960,2029,1576,2116
1748872401970,2079,1602,2073
1748872401980,2075,1574,1994
1748872401990,2060,1644,1991
1748872402000,2178,1608,1916
1748872402010,2202,1644,1931
1748872402020,2223,1582,1821
1748872402030,2288,1616,1870
1748872402040,2295,1602,1793
1748872402050,2324,1655,1701
1748872402060,2398,1645,1737
1748872402070,2387,1656,1718
1748872402080,2447,1658,1677
1748872402090,2398,1777,1657
1748872402100,2497,1758,1599
1748872402110,2431,1736,1536
1748872402120,2487,1754,1515
1748872402130,2535,1876,1514
1748872402140,2501,1886,1504
1748872402150,2490,1850,1543
1748872402160,2569,1961,1499
1748872402170,2535,1924,1468
1748872402180,2589,1971,1525
1748872402190,2509,2053,1532
1748872402200,2518,1999,1546
1748872402210,2577,2052,1568
1748872402220,2492,2070,1547
1748872402230,2505,2081,1518
1748872402240,2520,2152,1606
1748872402250,2526,2230,1567
1748872402260,2483,2236,1657
1748872402270,2418,2261,1672
1748872402280,2460,2223,1691
1748872402290,2400,2346,1696
1748872402300,2352,2282,1758
1748872402310,2353,2298,1785
1748872402320,2298,2378,1852
1748872402330,2235,2357,1924
1748872402340,2217,2445,1947
1748872402350,2220,2477,2022
1748872402360,2183,2471,1982
1748872402370,2133,2426,2034
1748872402380,2061,2490,2132
1748872402390,1998,2507,2142
1748872402400,2020,2483,2180
1748872402410,1937,2490,2209
1748872402420,1976,2459,2338
1748872402430,1949,2527,2353
1748872402440,1842,2523,2347
1748872402450,1802,2453,2365
1748872402460,1760,2494,2393
1748872402470,1735,2515,2491
1748872402480,1722,2521,2466
1748872402490,1680,2438,2489
1748872402500,1729,2398,2537
1748872402510,1614,2476,2588
1748872402520,1648,2432,2552
1748872402530,1566,2350,2605
1748872402540,1607,2336,2567
1748872402550,1581,2383,2613
1748872402560,1614,2309,2549
1748872402570,1530,2294,2628
1748872402580,1554,2281,2546
1748872402590,1542,2268,2574
1748872402600,1542,2197,2611
1748872402610,1589,2204,2519
1748872402620,1526,2160,2552
1748872402630,1557,2099,2537
1748872402640,1567,2088,2447
1748872402650,1550,2101,2464
1748872402660,1579,2068,2406
1748872402670,1600,2012,2412
1748872402680,1656,1992,2304
1748872402690,1668,2001,2328
1748872402700,1724,1913,2302
1748872402710,1755,1909,2241
1748872402720,1793,1837,2162
1748872402730,1824,1844,2120
1748872402740,1763,1843,2096
1748872402750,1846,1789,1993
1748872402760,1924,1801,2017
1748872402770,1952,1732,1931
1748872402780,1982,1693,1906
1748872402790,2027,1672,1822
1748872402800,2003,1647,1817
1748872402810,2025,1608,1804
1748872402820,2140,1632,1765
1748872402830,2092,1672,1681
1748872402840,2193,1662,1669
1748872402850,2181,1602,1644
1748872402860,2211,1625,1636
1748872402870,2239,1553,1537
1748872402880,2311,1554,1614
1748872402890,2291,1551,1580
1748872402900,2333,1567,1511
1748872402910,2412,1573,1467
1748872402920,2424,1615,1520
1748872402930,2423,1590,1550
1748872402940,2440,1596,1496
1748872402950,2448,1614,1530
1748872402960,2507,1696,1528
1748872402970,2563,1688,1509
1748872402980,2519,1681,1539
1748872402990,2501,1736,1506
1748872403000,2510,1766,1558
1748872403010,2562,1753,1555
1748872403020,2545,1728,1627
1748872403030,2559,1816,1625
1748872403040,2512,1784,1628
1748872403050,2531,1883,1695
1748872403060,2534,1857,1756
1748872403070,2525,1905,1747
1748872403080,2453,1952,1856
1748872403090,2458,1990,1901
1748872403100,2442,2052,1904
1748872403110,2425,2074,1908
1748872403120,2359,2061,1964
1748872403130,2367,2061,2051
1748872403140,2378,2174,2117
1748872403150,2329,2126,2124
1748872403160,2317,2200,2136
1748872403170,2280,2232,2257
1748872403180,2163,2269,2213
1748872403190,2123,2305,2340
1748872403200,2128,2329,2380
1748872403210,2126,2294,2326
1748872403220,2011,2345,2427
1748872403230,1974,2370,2391
1748872403240,1935,2354,2445
1748872403250,1960,2412,2513
1748872403260,1911,2419,2472
1748872403270,1891,2420,2530
1748872403280,1882,2472,2605
1748872403290,1777,2498,2614
1748872403300,1773,2529,2601
1748872403310,1774,2537,2561
1748872403320,1703,2468,2623
1748872403330,1688,2458,2629
1748872403340,1619,2460,2596
1748872403350,1601,2495,2564
1748872403360,1576,2450,2597
1748872403370,1604,2459,2555
1748872403380,1537,2467,2547
1748872403390,1594,2495,2557
1748872403400,1609,2420,2520
1748872403410,1575,2474,2449
1748872403420,1574,2425,2438
1748872403430,1504,2448,2366
1748872403440,1502,2366,2411
1748872403450,1545,2399,2314
1748872403460,1586,2325,2341
1748872403470,1548,2321,2263
1748872403480,1562,2276,2203
1748872403490,1554,2312,2196
1748872403500,1658,2262,2151
1748872403510,1583,2250,2049
1748872403520,1682,2163,2078
1748872403530,1667,2205,1974
1748872403540,1678,2099,1957
1748872403550,1698,2081,1875
1748872403560,1738,2094,1866
1748872403570,1844,2083,1814
1748872403580,1878,2002,1754
1748872403590,1893,2002,1775
1748872403600,1928,1906,1711
1748872403610,1933,1906,1656
1748872403620,1974,1886,1607
1748872403630,2054,1888,1657
1748872403640,2020,1879,1566
1748872403650,2130,1847,1610
1748872403660,2166,1738,1557
1748872403670,2140,1759,1490
1748872403680,2163,1718,1475
1748872403690,2247,1731,1479
1748872403700,2256,1736,1539
1748872403710,2324,1700,1501
1748872403720,2310,1641,1479
1748872403730,2330,1652,1538
1748872403740,2390,1591,1501
1748872403750,2416,1585,1504
1748872403760,2429,1647,1566
1748872403770,2419,1653,1561
1748872403780,2439,1620,1605
1748872403790,2503,1589,1562
1748872403800,2480,1571,1654
1748872403810,2570,1597,1658
1748872403820,2540,1575,1687
1748872403830,2576,1654,1708
1748872403840,2560,1604,1799
1748872403850,2588,1602,1869
1748872403860,2535,1615,1819
1748872403870,2526,1702,1864
1748872403880,2508,1696,1951
1748872403890,2555,1666,2013
1748872403900,2477,1738,2046
1748872403910,2515,1694,2080
1748872403920,2512,1770,2122
1748872403930,2482,1752,2219
1748872403940,2417,1855,2183
1748872403950,2412,1858,2254
1748872403960,2397,1814,2315
1748872403970,2350,1906,2358
1748872403980,2332,1884,2379
1748872403990,2300,1932,2442
1748872404000,2258,1954,2392
1748872404010,2244,2026,2522
1748872404020,2142,2011,2493
1748872404030,2171,2100,2480
1748872404040,2085,2088,2557
1748872404050,2104,2101,2532
1748872404060,2048,2128,2588
1748872404070,1956,2155,2544
1748872404080,1933,2247,2549
1748872404090,1883,2261,2570
1748872404100,1839,2302,2553
1748872404110,1856,2275,2544
1748872404120,1806,2378,2586
1748872404130,1757,2397,2563
1748872404140,1723,2383,2516
1748872404150,1774,2419,2530
1748872404160,1703,2422,2503
1748872404170,1666,2481,2505
1748872404180,1625,2443,2464
1748872404190,1594,2439,2423
1748872404200,1607,2514,2419
1748872404210,1561,2509,2333
1748872404220,1560,2448,2335
1748872404230,1597,2483,2323
1748872404240,1549,2494,2246
1748872404250,1563,2507,2237
1748872404260,1527,2508,2174
1748872404270,1533,2524,2088
1748872404280,1509,2533,2114
1748872404290,1509,2462,2035
1748872404300,1588,2474,1963
1748872404310,1614,2502,1930
1748872404320,1556,2463,1925
1748872404330,1575,2430,1871
1748872404340,1587,2426,1828
1748872404350,1634,2393,1759
1748872404360,1674,2375,1764
1748872404370,1700,2321,1660
1748872404380,1717,2285,1624
1748872404390,1712,2278,1646
1748872404400,1802,2237,1635
1748872404410,1839,2221,1559
1748872404420,1902,2259,1543
1748872404430,1908,2199,1591
1748872404440,1898,2113,1526
1748872404450,1984,2145,1522
1748872404460,1972,2090,1488
1748872404470,2025,2082,1511
1748872404480,2113,2060,1498
1748872404490,2109,1997,1512
1748872404500,2161,1989,1470
1748872404510,2191,1909,1551
1748872404520,2190,1914,1513
1748872404530,2255,1893,1586
1748872404540,2301,1838,1551
1748872404550,2346,1825,1632
1748872404560,2302,1786,1601
1748872404570,2377,1771,1627
1748872404580,2366,1741,1649
1748872404590,2463,1725,1735
1748872404600,2503,1721,1762
1748872404610,2482,1663,1822
1748872404620,2452,1662,1780
1748872404630,2538,1700,1900
1748872404640,2478,1673,1874
1748872404650,2520,1590,1906
1748872404660,2534,1634,2002
1748872404670,2526,1607,2022
1748872404680,2545,1573,2130
1748872404690,2516,1565,2167
1748872404700,2570,1592,2188
1748872404710,2525,1629,2180
1748872404720,2480,1568,2297
1748872404730,2544,1620,2338
1748872404740,2518,1598,2340
1748872404750,2465,1586,2413
1748872404760,2426,1638,2420
1748872404770,2469,1685,2443
1748872404780,2380,1610,2455
1748872404790,2347,1651,2501
1748872404800,2382,1649,2553
1748872404810,2372,1663,2511
1748872404820,2345,1686,2559
1748872404830,2303,1724,2616
1748872404840,2250,1780,2544
1748872404850,2157,1848,2599
1748872404860,2157,1831,2575
1748872404870,2166,1896,2585
1748872404880,2121,1905,2609
1748872404890,2084,1947,2558
1748872404900,1966,1941,2582
1748872404910,1976,1990,2588
1748872404920,1980,1990,2568
1748872404930,1870,1996,2508
1748872404940,1854,2056,2503
1748872404950,1817,2078,2487
1748872404960,1823,2115,2462
1748872404970,1811,2126,2453
1748872404980,1770,2245,2356
1748872404990,1718,2240,2287
1748872405000,1675,2289,2246
1748872405010,1622,2265,2250
1748872405020,1664,2351,2173
1748872405030,1650,2295,2165
1748872405040,1545,2355,2148
1748872405050,1585,2397,2039
1748872405060,1601,2390,2035
1748872405070,1531,2415,1991
1748872405080,1544,2444,1988
1748872405090,1513,2415,1866
1748872405100,1590,2414,1865
1748872405110,1548,2488,1796
1748872405120,1529,2434,1811
1748872405130,1521,2537,1768
1748872405140,1544,2512,1681
1748872405150,1561,2450,1678
1748872405160,1581,2484,1625
1748872405170,1604,2541,1631
1748872405180,1596,2454,1626
1748872405190,1627,2441,1513
1748872405200,1685,2507,1496
1748872405210,1727,2515,1548
1748872405220,1751,2436,1506
1748872405230,1808,2422,1466
1748872405240,1806,2385,1502
1748872405250,1839,2402,1534
1748872405260,1857,2412,1478
1748872405270,1876,2371,1542
1748872405280,1928,2364,1533
1748872405290,1994,2350,1579
1748872405300,2011,2253,1576
1748872405310,2035,2310,1541
1748872405320,2056,2247,1586
1748872405330,2085,2225,1657
1748872405340,2156,2201,1647
1748872405350,2167,2173,1673
1748872405360,2223,2127,1677
1748872405370,2259,2146,1756
1748872405380,2261,2050,1765
1748872405390,2330,2017,1806
1748872405400,2408,2035,1903
1748872405410,2356,1941,1955
1748872405420,2380,1902,1970
1748872405430,2482,1892,1961
1748872405440,2520,1901,2065
1748872405450,2482,1869,2076
1748872405460,2468,1869,2155
1748872405470,2532,1840,2206
1748872405480,2563,1741,2240
1748872405490,2544,1795,2262
1748872405500,2509,1714,2319
1748872405510,2575,1746,2389
1748872405520,2573,1641,2430
1748872405530,2576,1642,2428
1748872405540,2578,1700,2438
1748872405550,2564,1688,2458
1748872405560,2484,1644,2480
1748872405570,2462,1602,2491
1748872405580,2528,1561,2505
1748872405590,2507,1646,2516
1748872405600,2495,1553,2555
1748872405610,2475,1608,2631
1748872405620,2368,1618,2627
1748872405630,2341,1596,2625
1748872405640,2343,1560,2618
1748872405650,2262,1575,2598
1748872405660,2280,1639,2595
1748872405670,2237,1624,2587
1748872405680,2164,1618,2577
1748872405690,2213,1644,2578
1748872405700,2101,1677,2502
1748872405710,2124,1738,2542
1748872405720,2024,1705,2427
1748872405730,1989,1767,2455
1748872405740,1972,1790,2364
1748872405750,1932,1772,2395
1748872405760,1869,1792,2295
1748872405770,1828,1852,2278
1748872405780,1851,1886,2218
1748872405790,1810,1849,2248
1748872405800,1760,1909,2115
1748872405810,1725,1988,2152
1748872405820,1734,1934,2106
1748872405830,1715,2033,2033
1748872405840,1702,2038,1951
1748872405850,1602,2091,1953
1748872405860,1602,2086,1927
1748872405870,1591,2145,1804
1748872405880,1583,2145,1825
1748872405890,1538,2204,1761
1748872405900,1588,2229,1734
1748872405910,1598,2277,1703
1748872405920,1549,2233,1638
1748872405930,1589,2338,1588
1748872405940,1592,2313,1587
1748872405950,1567,2319,1560
1748872405960,1539,2361,1521
1748872405970,1522,2433,1522
1748872405980,1547,2396,1510
1748872405990,1596,2421,1501
1748872406000,1646,2490,1493
1748872406010,1676,2490,1532
1748872406020,1660,2457,1537
1748872406030,1630,2504,1542
1748872406040,1688,2448,1550
1748872406050,1692,2514,1550
1748872406060,1775,2486,1531
1748872406070,1813,2447,1503
1748872406080,1816,2494,1518
1748872406090,1868,2533,1559
1748872406100,1852,2536,1638
1748872406110,1930,2477,1622
1748872406120,1930,2456,1712
1748872406130,2030,2493,1666
1748872406140,2027,2469,1705
1748872406150,2056,2475,1802
1748872406160,2115,2375,1869
1748872406170,2160,2406,1869
1748872406180,2186,2384,1869
1748872406190,2193,2352,1976
1748872406200,2287,2291,2009
1748872406210,2341,2290,2098
1748872406220,2318,2274,2101
1748872406230,2331,2236,2097
1748872406240,2392,2214,2168
1748872406250,2372,2229,2240
1748872406260,2424,2186,2262
1748872406270,2414,2173,2357
1748872406280,2515,2119,2354
1748872406290,2466,2027,2379
1748872406300,2526,2042,2377
1748872406310,2522,2044,2454
1748872406320,2504,1936,2451
1748872406330,2532,1988,2548
1748872406340,2584,1903,2494
1748872406350,2541,1855,2575
1748872406360,2532,1884,2612
1748872406370,2524,1827,2604
1748872406380,2571,1797,2605
1748872406390,2502,1819,2613
1748872406400,2525,1720,2561
1748872406410,2493,1727,2553
1748872406420,2519,1685,2630
1748872406430,2487,1714,2632
1748872406440,2438,1619,2597
1748872406450,2434,1619,2558
1748872406460,2384,1602,2582
1748872406470,2332,1644,2538
1748872406480,2315,1619,2490
1748872406490,2283,1653,2511
1748872406500,2238,1638,2416
1748872406510,2195,1603,2435
1748872406520,2196,1559,2332
1748872406530,2171,1647,2316
1748872406540,2076,1638,2242
1748872406550,2063,1589,2199
1748872406560,2083,1606,2245
1748872406570,2015,1651,2126
1748872406580,1963,1683,2142
1748872406590,1882,1647,2087
1748872406600,1838,1687,1976
1748872406610,1868,1693,2026
1748872406620,1786,1711,1952
1748872406630,1767,1669,1864
1748872406640,1771,1744,1799
1748872406650,1746,1749,1807
1748872406660,1672,1833,1723
1748872406670,1655,1845,1733
1748872406680,1672,1850,1699
1748872406690,1613,1917,1699
1748872406700,1635,1881,1639
1748872406710,1635,1945,1644
1748872406720,1550,1916,1615
1748872406730,1562,1947,1582
1748872406740,1592,2051,1547
1748872406750,1509,2093,1486
1748872406760,1501,2093,1486
1748872406770,1536,2101,1527
1748872406780,1559,2165,1503
1748872406790,1521,2219,1462
1748872406800,1601,2218,1492
1748872406810,1604,2271,1526
1748872406820,1553,2303,1523
1748872406830,1575,2235,1570
1748872406840,1666,2275,1534
1748872406850,1672,2298,1552
1748872406860,1679,2336,1590
1748872406870,1690,2387,1581
1748872406880,1765,2415,1619
1748872406890,1716,2398,1717
1748872406900,1785,2443,1689
1748872406910,1832,2414,1747
1748872406920,1857,2495,1832
1748872406930,1857,2521,1852
1748872406940,1943,2444,1922
1748872406950,1993,2530,1878
1748872406960,2024,2455,1944
1748872406970,2050,2542,1970
1748872406980,2080,2456,2049
1748872406990,2105,2541,2142
1748872407000,2147,2452,2174
1748872407010,2225,2534,2219
1748872407020,2176,2442,2197
1748872407030,2226,2424,2223
1748872407040,2272,2442,2273
1748872407050,2364,2436,2311
1748872407060,2372,2429,2356
1748872407070,2344,2381,2425
1748872407080,2370,2384,2430
1748872407090,2438,2380,2435
1748872407100,2489,2361,2471
1748872407110,2458,2369,2566
1748872407120,2452,2288,2572
1748872407130,2540,2300,2607
1748872407140,2551,2285,2601
1748872407150,2545,2236,2548
1748872407160,2492,2220,2583
1748872407170,2561,2197,2638
1748872407180,2545,2168,2557
1748872407190,2513,2063,2615
1748872407200,2543,2032,2534
1748872407210,2557,2018,2579
1748872407220,2540,1951,2543
1748872407230,2469,2007,2582
1748872407240,2537,1978,2526
1748872407250,2516,1918,2483
1748872407260,2481,1850,2486
1748872407270,2401,1818,2399
1748872407280,2463,1800,2347
1748872407290,2407,1746,2328
1748872407300,2352,1753,2354
1748872407310,2300,1740,2304
1748872407320,2321,1730,2260
1748872407330,2272,1680,2208
1748872407340,2274,1647,2114
1748872407350,2177,1659,2126
1748872407360,2191,1662,2111
1748872407370,2155,1614,2052
1748872407380,2076,1631,1977
1748872407390,2077,1597,1911
1748872407400,1992,1620,1894
1748872407410,1993,1558,1809
1748872407420,1969,1600,1789
1748872407430,1889,1592,1751
1748872407440,1886,1595,1753
1748872407450,1792,1646,1728
1748872407460,1763,1615,1698
1748872407470,1780,1655,1637
1748872407480,1747,1659,1585
1748872407490,1717,1656,1604
1748872407500,1702,1624,1591
1748872407510,1617,1693,1512
1748872407520,1677,1655,1489
1748872407530,1610,1680,1490
1748872407540,1615,1768,1473
1748872407550,1582,1782,1449
1748872407560,1532,1748,1522
1748872407570,1575,1750,1482
1748872407580,1588,1795,1486
1748872407590,1532,1810,1514
1748872407600,1498,1835,1531
1748872407610,1500,1947,1539
1748872407620,1558,1914,1573
1748872407630,1537,1929,1572
1748872407640,1620,2009,1634
1748872407650,1573,2055,1673
1748872407660,1647,2080,1643
1748872407670,1629,2130,1720
1748872407680,1591,2134,1710
1748872407690,1641,2128,1826
1748872407700,1695,2220,1875
1748872407710,1674,2181,1856
1748872407720,1779,2281,1947
1748872407730,1778,2282,1976
1748872407740,1822,2246,1965
1748872407750,1887,2313,2095
1748872407760,1910,2325,2059
1748872407770,1876,2326,2149
1748872407780,1982,2340,2202
1748872407790,1960,2364,2205
1748872407800,2066,2444,2319
1748872407810,2026,2408,2335
1748872407820,2093,2407,2320
1748872407830,2107,2456,2361
1748872407840,2143,2518,2425
1748872407850,2205,2478,2447
1748872407860,2277,2488,2456
1748872407870,2248,2459,2539
1748872407880,2287,2522,2574
1748872407890,2371,2499,2588
1748872407900,2398,2488,2613
1748872407910,2377,2488,2537
1748872407920,2412,2458,2610
1748872407930,2406,2517,2625
1748872407940,2437,2488,2584
1748872407950,2503,2471,2641
1748872407960,2494,2466,2631
1748872407970,2544,2425,2551
1748872407980,2510,2393,2541
1748872407990,2513,2351,2534
1748872408000,2501,2347,2576
1748872408010,2563,2308,2465
1748872408020,2575,2367,2463
1748872408030,2536,2260,2424
1748872408040,2543,2277,2453
1748872408050,2497,2287,2437
1748872408060,2496,2226,2356
1748872408070,2546,2223,2356
1748872408080,2538,2128,2231
1748872408090,2510,2158,2246
1748872408100,2431,2043,2241
1748872408110,2430,2061,2115
1748872408120,2349,1991,2124
1748872408130,2331,1997,2063
1748872408140,2303,2011,2003
1748872408150,2349,1942,1998
1748872408160,2291,1945,1892
1748872408170,2286,1832,1890
1748872408180,2213,1838,1845
1748872408190,2190,1828,1787
1748872408200,2123,1795,1792
1748872408210,2080,1781,1747
1748872408220,2073,1752,1706
1748872408230,2043,1693,1677
1748872408240,2010,1708,1655
1748872408250,1959,1686,1575
1748872408260,1884,1656,1623
1748872408270,1906,1647,1577
1748872408280,1813,1624,1585
1748872408290,1852,1663,1534
1748872408300,1738,1581,1509
1748872408310,1708,1647,1542
1748872408320,1759,1582,1548
1748872408330,1671,1558,1508
1748872408340,1660,1577,1467
1748872408350,1594,1554,1505
1748872408360,1642,1609,1568
1748872408370,1558,1595,1536
1748872408380,1617,1657,1559
1748872408390,1572,1602,1603
1748872408400,1565,1617,1567
1748872408410,1561,1689,1631
1748872408420,1531,1696,1625
1748872408430,1524,1707,1697
1748872408440,1587,1728,1726
1748872408450,1578,1674,1717
1748872408460,1525,1756,1752
1748872408470,1562,1739,1823
1748872408480,1600,1744,1870
1748872408490,1577,1787,1880
1748872408500,1578,1885,1955
1748872408510,1613,1873,2063
1748872408520,1617,1940,2015
1748872408530,1666,1940,2079
1748872408540,1735,1988,2106
1748872408550,1701,2016,2219
1748872408560,1747,2056,2215
1748872408570,1780,2078,2319
1748872408580,1854,2093,2311
1748872408590,1838,2146,2386
1748872408600,1897,2119,2420
1748872408610,1971,2223,2396
1748872408620,1956,2231,2412
1748872408630,2013,2242,2480
