timestamp_ms_device,ppg_finger1,ppg_finger2,ppg_finger3
1749040941555,2065,2280,2537
1749040941565,2112,2303,2515
1749040941575,2173,2361,2567
1749040941585,2184,2314,2519
1749040941595,2231,2360,2617
1749040941605,2267,2399,2586
1749040941615,2255,2358,2636
1749040941625,2254,2452,2635
1749040941635,2314,2457,2642
1749040941645,2359,2474,2554
1749040941655,2416,2430,2568
1749040941665,2402,2438,2565
1749040941675,2455,2459,2561
1749040941685,2420,2537,2524
1749040941695,2530,2454,2466
1749040941705,2507,2453,2451
1749040941715,2486,2544,2423
1749040941725,2503,2458,2384
1749040941735,2531,2470,2401
1749040941745,2538,2479,2348
1749040941755,2543,2469,2302
1749040941765,2514,2489,2302
1749040941775,2540,2470,2247
1749040941785,2512,2483,2212
1749040941795,2557,2465,2111
1749040941805,2543,2369,2053
1749040941815,2467,2406,2034
1749040941825,2469,2386,1964
1749040941835,2487,2340,1929
1749040941845,2424,2358,1923
1749040941855,2400,2300,1914
1749040941865,2423,2242,1870
1749040941875,2373,2199,1831
1749040941885,2359,2251,1725
1749040941895,2337,2201,1732
1749040941905,2275,2120,1733
1749040941915,2273,2127,1661
1749040941925,2186,2078,1639
1749040941935,2155,2096,1641
1749040941945,2148,2044,1591
1749040941955,2135,1987,1532
1749040941965,2028,1943,1540
1749040941975,2046,1882,1554
1749040941985,1950,1894,1556
1749040941995,1951,1826,1487
1749040942005,1925,1797,1470
1749040942015,1856,1791,1476
1749040942025,1861,1820,1476
1749040942035,1813,1741,1539
1749040942045,1783,1781,1473
1749040942055,1738,1768,1501
1749040942065,1736,1732,1524
1749040942075,1739,1643,1561
1749040942085,1625,1619,1579
1749040942095,1697,1662,1650
1749040942105,1619,1640,1632
1749040942115,1572,1618,1673
1749040942125,1640,1577,1709
1749040942135,1604,1602,1740
1749040942145,1609,1601,1778
1749040942155,1561,1626,1815
1749040942165,1505,1601,1879
1749040942175,1573,1561,1904
1749040942185,1586,1565,2006
1749040942195,1523,1645,2014
1749040942205,1574,1568,2093
1749040942215,1587,1637,2133
1749040942225,1533,1664,2194
1749040942235,1549,1685,2245
1749040942245,1579,1624,2267
1749040942255,1640,1653,2286
1749040942265,1617,1669,2299
1749040942275,1691,1761,2334
1749040942285,1666,1708,2433
1749040942295,1703,1808,2412
1749040942305,1733,1800,2498
1749040942315,1793,1841,2516
1749040942325,1822,1853,2464
1749040942335,1820,1838,2543
1749040942345,1936,1880,2538
1749040942355,1920,1920,2544
1749040942365,2006,1987,2553
1749040942375,2025,1975,2591
1749040942385,2048,1982,2558
1749040942395,2079,2076,2568
1749040942405,2153,2108,2581
1749040942415,2150,2137,2555
1749040942425,2203,2149,2595
1749040942435,2198,2145,2568
1749040942445,2266,2221,2522
1749040942455,2258,2262,2571
1749040942465,2299,2303,2472
1749040942475,2394,2267,2497
1749040942485,2397,2316,2454
1749040942495,2387,2350,2392
1749040942505,2428,2385,2344
1749040942515,2450,2422,2310
1749040942525,2461,2437,2276
1749040942535,2497,2424,2245
1749040942545,2498,2404,2250
1749040942555,2528,2424,2148
1749040942565,2569,2512,2136
1749040942575,2562,2525,2084
1749040942585,2559,2501,2100
1749040942595,2555,2442,2059
1749040942605,2560,2464,1967
1749040942615,2578,2539,1912
1749040942625,2517,2545,1834
1749040942635,2505,2472,1860
1749040942645,2520,2517,1765
1749040942655,2466,2461,1802
1749040942665,2440,2512,1707
1749040942675,2439,2495,1682
1749040942685,2449,2482,1657
1749040942695,2440,2399,1629
1749040942705,2390,2428,1568
1749040942715,2327,2358,1585
1749040942725,2316,2380,1528
1749040942735,2255,2365,1498
1749040942745,2285,2303,1483
1749040942755,2260,2320,1468
1749040942765,2222,2244,1512
1749040942775,2168,2299,1503
1749040942785,2120,2235,1488
1749040942795,2123,2237,1478
1749040942805,2089,2213,1535
1749040942815,2006,2167,1529
1749040942825,1999,2159,1489
1749040942835,1955,2049,1519
1749040942845,1872,2005,1596
1749040942855,1839,1990,1614
1749040942865,1805,2024,1655
1749040942875,1820,1963,1662
1749040942885,1743,1905,1684
1749040942895,1738,1911,1753
1749040942905,1710,1910,1758
1749040942915,1662,1870,1810
1749040942925,1664,1804,1866
1749040942935,1623,1784,1859
1749040942945,1586,1759,1949
1749040942955,1575,1699,1946
1749040942965,1532,1728,2032
1749040942975,1572,1665,2112
1749040942985,1514,1658,2137
1749040942995,1537,1641,2170
1749040943005,1554,1695,2177
1749040943015,1500,1599,2235
1749040943025,1599,1657,2290
1749040943035,1508,1620,2336
1749040943045,1550,1557,2324
1749040943055,1596,1614,2371
1749040943065,1602,1566,2449
1749040943075,1576,1557,2449
1749040943085,1590,1607,2479
1749040943095,1592,1631,2515
1749040943105,1631,1617,2585
1749040943115,1732,1570,2516
1749040943125,1716,1576,2613
1749040943135,1709,1620,2534
1749040943145,1823,1701,2564
1749040943155,1843,1687,2570
1749040943165,1798,1635,2551
1749040943175,1871,1712,2558
1749040943185,1914,1678,2568
1749040943195,1900,1766,2534
1749040943205,1958,1794,2590
1749040943215,2047,1746,2569
1749040943225,2100,1859,2510
1749040943235,2108,1851,2502
1749040943245,2104,1887,2529
1749040943255,2167,1905,2417
1749040943265,2240,1928,2446
1749040943275,2200,1950,2385
1749040943285,2313,2031,2374
1749040943295,2354,2005,2305
1749040943305,2362,2100,2248
1749040943315,2325,2083,2277
1749040943325,2350,2136,2199
1749040943335,2398,2117,2165
1749040943345,2398,2196,2106
1749040943355,2445,2229,2021
1749040943365,2492,2192,2015
1749040943375,2501,2256,1965
1749040943385,2484,2332,1896
1749040943395,2553,2303,1889
1749040943405,2559,2340,1838
1749040943415,2514,2368,1761
1749040943425,2594,2415,1765
1749040943435,2589,2392,1668
1749040943445,2563,2377,1657
1749040943455,2538,2453,1642
1749040943465,2488,2503,1598
1749040943475,2518,2449,1613
1749040943485,2541,2456,1529
1749040943495,2514,2436,1581
1749040943505,2463,2521,1562
1749040943515,2403,2546,1562
1749040943525,2440,2480,1491
1749040943535,2441,2479,1522
1749040943545,2395,2473,1541
1749040943555,2380,2453,1456
1749040943565,2340,2478,1483
1749040943575,2295,2476,1469
1749040943585,2292,2467,1518
1749040943595,2203,2461,1535
1749040943605,2141,2463,1540
1749040943615,2157,2463,1580
1749040943625,2114,2356,1554
1749040943635,2054,2388,1643
1749040943645,1992,2368,1703
1749040943655,2023,2317,1658
1749040943665,1987,2269,1685
1749040943675,1865,2284,1738
1749040943685,1925,2292,1850
1749040943695,1813,2228,1818
1749040943705,1847,2227,1928
1749040943715,1766,2137,1925
1749040943725,1699,2103,1995
1749040943735,1679,2152,2012
1749040943745,1694,2076,2046
1749040943755,1643,2087,2126
1749040943765,1625,2005,2206
1749040943775,1601,1989,2178
1749040943785,1578,2006,2255
1749040943795,1572,1898,2239
1749040943805,1620,1939,2324
1749040943815,1593,1832,2323
1749040943825,1537,1867,2444
1749040943835,1585,1782,2410
1749040943845,1534,1830,2511
1749040943855,1537,1744,2498
1749040943865,1504,1749,2527
1749040943875,1523,1723,2553
1749040943885,1594,1650,2568
1749040943895,1583,1642,2538
1749040943905,1622,1624,2548
1749040943915,1620,1640,2641
1749040943925,1632,1644,2571
1749040943935,1639,1600,2599
1749040943945,1726,1649,2622
1749040943955,1735,1587,2586
1749040943965,1777,1644,2577
1749040943975,1746,1581,2546
1749040943985,1810,1595,2551
1749040943995,1861,1583,2516
1749040944005,1837,1581,2489
1749040944015,1849,1576,2516
1749040944025,1971,1589,2469
1749040944035,1977,1640,2461
1749040944045,2055,1649,2431
1749040944055,2017,1660,2367
1749040944065,2066,1701,2326
1749040944075,2108,1702,2282
1749040944085,2153,1685,2199
1749040944095,2239,1767,2211
1749040944105,2246,1765,2155
1749040944115,2254,1770,2053
1749040944125,2340,1768,2008
1749040944135,2291,1799,1956
1749040944145,2394,1845,1974
1749040944155,2438,1856,1902
1749040944165,2383,1941,1915
1749040944175,2452,1903,1803
1749040944185,2478,1965,1738
1749040944195,2444,2040,1798
1749040944205,2536,2026,1730
1749040944215,2471,2046,1658
1749040944225,2512,2144,1625
1749040944235,2520,2153,1611
1749040944245,2498,2157,1546
1749040944255,2529,2181,1592
1749040944265,2567,2245,1575
1749040944275,2596,2209,1540
1749040944285,2530,2236,1485
1749040944295,2488,2315,1492
1749040944305,2495,2298,1493
1749040944315,2482,2367,1523
1749040944325,2541,2419,1477
1749040944335,2492,2434,1486
1749040944345,2480,2409,1522
1749040944355,2471,2427,1493
1749040944365,2389,2407,1557
1749040944375,2358,2471,1607
1749040944385,2376,2505,1558
1749040944395,2294,2472,1556
1749040944405,2316,2474,1632
1749040944415,2265,2515,1670
1749040944425,2189,2478,1723
1749040944435,2216,2518,1778
1749040944445,2176,2464,1784
1749040944455,2103,2450,1844
1749040944465,2055,2447,1838
1749040944475,1999,2440,1859
1749040944485,1975,2435,1951
1749040944495,1979,2464,1951
1749040944505,1931,2477,2075
1749040944515,1838,2477,2099
1749040944525,1820,2410,2124
1749040944535,1797,2406,2168
1749040944545,1774,2427,2214
1749040944555,1755,2379,2265
1749040944565,1732,2310,2305
1749040944575,1681,2269,2343
1749040944585,1675,2250,2334
1749040944595,1677,2208,2410
1749040944605,1583,2262,2464
1749040944615,1558,2201,2464
1749040944625,1581,2210,2456
1749040944635,1563,2151,2484
1749040944645,1551,2063,2585
1749040944655,1509,2081,2605
1749040944665,1525,2053,2606
1749040944675,1592,2059,2567
1749040944685,1503,1958,2545
1749040944695,1575,1953,2617
1749040944705,1552,1877,2590
1749040944715,1533,1923,2633
1749040944725,1597,1914,2621
1749040944735,1579,1852,2540
1749040944745,1652,1860,2555
1749040944755,1664,1770,2590
1749040944765,1609,1768,2525
1749040944775,1653,1769,2549
1749040944785,1717,1676,2454
1749040944795,1703,1669,2464
1749040944805,1764,1635,2435
1749040944815,1798,1708,2340
1749040944825,1792,1653,2382
1749040944835,1871,1586,2327
1749040944845,1923,1657,2226
1749040944855,1899,1660,2175
1749040944865,1940,1646,2129
1749040944875,1964,1581,2152
1749040944885,2083,1636,2100
1749040944895,2051,1616,2049
1749040944905,2150,1556,2000
1749040944915,2115,1635,1995
1749040944925,2190,1657,1901
1749040944935,2260,1601,1881
1749040944945,2300,1656,1843
1749040944955,2270,1686,1748
1749040944965,2304,1642,1773
1749040944975,2351,1623,1742
1749040944985,2373,1662,1666
1749040944995,2407,1695,1634
1749040945005,2415,1727,1577
1749040945015,2408,1764,1633
1749040945025,2457,1773,1529
1749040945035,2456,1831,1554
1749040945045,2523,1868,1500
1749040945055,2552,1878,1530
1749040945065,2573,1878,1534
1749040945075,2537,1934,1453
1749040945085,2499,1967,1462
1749040945095,2578,1994,1519
1749040945105,2498,1968,1554
1749040945115,2590,2036,1536
1749040945125,2563,2025,1505
1749040945135,2572,2081,1569
1749040945145,2502,2129,1591
1749040945155,2475,2120,1611
1749040945165,2498,2138,1652
1749040945175,2501,2200,1683
1749040945185,2451,2223,1670
1749040945195,2419,2277,1676
1749040945205,2393,2342,1710
1749040945215,2398,2341,1737
1749040945225,2299,2349,1840
1749040945235,2319,2388,1815
1749040945245,2246,2383,1921
1749040945255,2203,2413,1974
1749040945265,2157,2415,1946
1749040945275,2128,2459,2061
1749040945285,2128,2413,2125
1749040945295,2064,2469,2154
1749040945305,2091,2524,2208
1749040945315,1999,2514,2204
1749040945325,1928,2449,2203
1749040945335,1909,2475,2338
1749040945345,1852,2527,2299
1749040945355,1861,2527,2402
1749040945365,1873,2469,2413
1749040945375,1750,2467,2392
1749040945385,1814,2454,2439
1749040945395,1710,2487,2540
1749040945405,1734,2434,2562
1749040945415,1694,2468,2574
1749040945425,1689,2386,2530
1749040945435,1619,2456,2543
1749040945445,1578,2434,2617
1749040945455,1584,2358,2553
1749040945465,1602,2377,2625
1749040945475,1589,2282,2611
1749040945485,1577,2311,2576
1749040945495,1528,2253,2599
1749040945505,1559,2278,2608
1749040945515,1519,2181,2520
1749040945525,1505,2235,2533
1749040945535,1604,2162,2562
1749040945545,1548,2168,2521
1749040945555,1564,2146,2446
1749040945565,1613,2091,2423
1749040945575,1649,2061,2372
1749040945585,1630,2062,2422
1749040945595,1610,1946,2315
1749040945605,1664,1974,2332
1749040945615,1652,1929,2309
1749040945625,1734,1880,2211
1749040945635,1767,1862,2174
1749040945645,1818,1844,2179
1749040945655,1769,1781,2112
1749040945665,1811,1781,2040
1749040945675,1871,1788,2027
1749040945685,1870,1702,1957
1749040945695,1972,1714,1926
1749040945705,1987,1663,1837
1749040945715,1977,1674,1787
1749040945725,2085,1615,1826
1749040945735,2053,1597,1709
1749040945745,2120,1628,1701
1749040945755,2123,1640,1637
1749040945765,2241,1628,1604
1749040945775,2264,1625,1649
1749040945785,2255,1629,1606
1749040945795,2326,1621,1551
1749040945805,2363,1623,1573
1749040945815,2357,1600,1496
1749040945825,2422,1558,1498
1749040945835,2398,1654,1522
1749040945845,2429,1634,1514
1749040945855,2508,1591,1521
1749040945865,2458,1644,1477
1749040945875,2495,1625,1486
1749040945885,2474,1673,1493
1749040945895,2537,1697,1567
1749040945905,2507,1720,1554
1749040945915,2537,1773,1544
1749040945925,2585,1799,1609
1749040945935,2510,1777,1611
1749040945945,2544,1772,1604
1749040945955,2498,1867,1654
1749040945965,2534,1894,1719
1749040945975,2542,1865,1772
1749040945985,2464,1870,1812
1749040945995,2462,1912,1779
1749040946005,2458,1989,1888
1749040946015,2475,1995,1937
1749040946025,2382,2013,1959
1749040946035,2404,2119,1974
1749040946045,2339,2079,2020
1749040946055,2310,2086,2112
1749040946065,2276,2179,2157
1749040946075,2290,2208,2148
1749040946085,2249,2221,2165
1749040946095,2164,2200,2247
1749040946105,2125,2232,2267
1749040946115,2125,2254,2341
1749040946125,2127,2299,2343
1749040946135,2013,2327,2455
1749040946145,2012,2381,2446
1749040946155,1975,2360,2449
1749040946165,1996,2371,2524
1749040946175,1923,2397,2543
1749040946185,1914,2443,2543
1749040946195,1885,2462,2573
1749040946205,1805,2506,2595
1749040946215,1731,2489,2562
1749040946225,1776,2447,2554
1749040946235,1721,2465,2642
1749040946245,1723,2475,2614
1749040946255,1642,2481,2581
1749040946265,1635,2542,2552
1749040946275,1573,2481,2561
1749040946285,1581,2468,2579
1749040946295,1557,2486,2559
1749040946305,1595,2490,2518
1749040946315,1554,2428,2528
1749040946325,1581,2487,2489
1749040946335,1558,2419,2469
1749040946345,1582,2399,2398
1749040946355,1529,2427,2384
1749040946365,1508,2356,2345
1749040946375,1580,2364,2322
1749040946385,1561,2323,2220
1749040946395,1577,2255,2199
1749040946405,1639,2268,2141
1749040946415,1629,2272,2111
1749040946425,1656,2218,2054
1749040946435,1631,2207,2071
1749040946445,1689,2186,2006
1749040946455,1714,2157,1952
1749040946465,1698,2091,1945
1749040946475,1715,2058,1889
1749040946485,1784,2037,1815
1749040946495,1814,2047,1792
1749040946505,1859,1967,1701
1749040946515,1874,1987,1723
1749040946525,1963,1955,1693
1749040946535,2017,1880,1686
1749040946545,2048,1834,1597
1749040946555,2026,1803,1606
1749040946565,2121,1803,1571
1749040946575,2160,1825,1558
1749040946585,2164,1792,1493
1749040946595,2206,1743,1464
1749040946605,2221,1728,1553
1749040946615,2274,1660,1502
1749040946625,2260,1675,1524
1749040946635,2333,1696,1482
1749040946645,2328,1623,1554
1749040946655,2426,1628,1558
1749040946665,2434,1627,1510
1749040946675,2477,1584,1558
1749040946685,2482,1567,1547
1749040946695,2533,1568,1627
1749040946705,2470,1577,1618
1749040946715,2495,1557,1680
1749040946725,2554,1576,1696
1749040946735,2542,1559,1742
1749040946745,2545,1635,1703
1749040946755,2567,1660,1748
1749040946765,2530,1629,1776
1749040946775,2592,1626,1873
1749040946785,2568,1676,1925
1749040946795,2571,1635,1982
1749040946805,2508,1670,1990
1749040946815,2510,1739,1990
1749040946825,2521,1691,2104
1749040946835,2461,1716,2103
1749040946845,2488,1737,2208
1749040946855,2427,1779,2183
1749040946865,2451,1840,2210
1749040946875,2408,1897,2260
1749040946885,2318,1894,2335
1749040946895,2345,1893,2398
1749040946905,2327,1959,2385
1749040946915,2219,1991,2468
1749040946925,2215,1987,2476
1749040946935,2172,2032,2482
1749040946945,2156,2065,2547
1749040946955,2067,2104,2529
1749040946965,2054,2127,2572
1749040946975,2022,2196,2533
1749040946985,1977,2147,2624
1749040946995,1988,2188,2639
1749040947005,1890,2253,2597
1749040947015,1860,2316,2593
1749040947025,1814,2332,2612
1749040947035,1775,2331,2552
1749040947045,1738,2368,2537
1749040947055,1739,2348,2585
1749040947065,1740,2351,2512
1749040947075,1735,2373,2567
1749040947085,1624,2454,2543
1749040947095,1651,2496,2444
1749040947105,1627,2433,2460
1749040947115,1614,2448,2431
1749040947125,1629,2502,2389
1749040947135,1618,2519,2357
1749040947145,1574,2455,2325
1749040947155,1559,2460,2224
1749040947165,1504,2484,2170
1749040947175,1596,2458,2130
1749040947185,1546,2506,2136
1749040947195,1599,2533,2059
1749040947205,1566,2502,2052
1749040947215,1522,2520,2030
1749040947225,1594,2451,1947
1749040947235,1579,2457,1936
1749040947245,1586,2392,1814
1749040947255,1657,2377,1782
1749040947265,1678,2418,1776
1749040947275,1642,2420,1780
1749040947285,1700,2323,1724
1749040947295,1742,2297,1696
1749040947305,1744,2336,1629
1749040947315,1788,2266,1559
1749040947325,1829,2242,1539
1749040947335,1819,2198,1606
1749040947345,1896,2143,1529
1749040947355,1944,2176,1509
1749040947365,1993,2086,1550
1749040947375,1971,2131,1549
1749040947385,2042,2046,1516
1749040947395,2083,2025,1548
1749040947405,2063,2006,1466
1749040947415,2134,1947,1554
1749040947425,2227,1956,1516
1749040947435,2184,1896,1497
1749040947445,2218,1929,1545
1749040947455,2286,1904,1524
1749040947465,2331,1847,1540
1749040947475,2388,1822,1599
1749040947485,2410,1730,1596
1749040947495,2435,1713,1642
1749040947505,2432,1699,1680
1749040947515,2413,1672,1776
1749040947525,2468,1716,1752
1749040947535,2523,1626,1790
1749040947545,2465,1625,1818
1749040947555,2570,1654,1880
1749040947565,2528,1581,1990
1749040947575,2545,1657,2011
1749040947585,2561,1584,2009
1749040947595,2540,1557,2075
1749040947605,2551,1609,2174
1749040947615,2579,1633,2182
1749040947625,2496,1625,2209
1749040947635,2569,1594,2230
1749040947645,2535,1572,2325
1749040947655,2541,1564,2335
1749040947665,2501,1572,2409
1749040947675,2421,1648,2403
1749040947685,2463,1682,2454
1749040947695,2388,1686,2450
1749040947705,2435,1695,2472
1749040947715,2350,1654,2509
1749040947725,2301,1747,2570
1749040947735,2254,1737,2581
1749040947745,2252,1711,2611
1749040947755,2256,1820,2633
1749040947765,2219,1811,2629
1749040947775,2189,1867,2644
1749040947785,2101,1870,2586
1749040947795,2088,1903,2601
1749040947805,2042,1929,2599
1749040947815,2022,1945,2556
1749040947825,1982,1953,2526
1749040947835,1980,2003,2499
1749040947845,1863,2063,2502
1749040947855,1855,2033,2460
1749040947865,1811,2090,2444
1749040947875,1800,2133,2435
1749040947885,1745,2173,2354
1749040947895,1687,2151,2400
1749040947905,1728,2215,2349
1749040947915,1691,2250,2269
1749040947925,1638,2307,2285
1749040947935,1624,2351,2220
1749040947945,1568,2356,2195
1749040947955,1582,2357,2088
1749040947965,1596,2334,2029
1749040947975,1546,2359,2069
1749040947985,1582,2403,2015
1749040947995,1553,2397,1972
1749040948005,1563,2421,1942
1749040948015,1571,2502,1897
1749040948025,1566,2463,1838
1749040948035,1534,2490,1733
1749040948045,1575,2492,1726
1749040948055,1603,2511,1650
1749040948065,1606,2496,1639
1749040948075,1575,2468,1628
1749040948085,1668,2470,1595
1749040948095,1594,2448,1583
1749040948105,1622,2467,1584
1749040948115,1726,2433,1567
1749040948125,1692,2439,1526
1749040948135,1736,2450,1494
1749040948145,1727,2426,1512
1749040948155,1832,2437,1449
1749040948165,1851,2428,1469
1749040948175,1869,2408,1533
1749040948185,1873,2379,1481
1749040948195,1922,2352,1505
1749040948205,1945,2328,1561
1749040948215,2027,2324,1525
1749040948225,2042,2270,1568
1749040948235,2062,2253,1620
1749040948245,2154,2233,1645
1749040948255,2171,2170,1687
1749040948265,2241,2132,1628
1749040948275,2239,2149,1713
1749040948285,2311,2136,1748
1749040948295,2272,2114,1785
1749040948305,2294,2032,1796
1749040948315,2388,1962,1878
1749040948325,2373,2008,1887
1749040948335,2432,1933,1992
1749040948345,2415,1889,1990
1749040948355,2500,1849,2068
1749040948365,2449,1884,2122
1749040948375,2547,1864,2108
1749040948385,2527,1761,2178
1749040948395,2544,1814,2229
1749040948405,2544,1767,2291
1749040948415,2496,1778,2344
1749040948425,2581,1699,2389
1749040948435,2571,1674,2421
1749040948445,2521,1620,2433
1749040948455,2515,1692,2418
1749040948465,2565,1606,2480
1749040948475,2514,1587,2530
1749040948485,2537,1611,2571
1749040948495,2484,1629,2521
1749040948505,2445,1625,2548
1749040948515,2474,1644,2575
1749040948525,2379,1643,2610
1749040948535,2372,1627,2598
1749040948545,2341,1591,2618
1749040948555,2329,1595,2586
1749040948565,2319,1645,2630
1749040948575,2254,1623,2556
1749040948585,2271,1626,2535
1749040948595,2183,1602,2560
1749040948605,2129,1661,2580
1749040948615,2134,1647,2531
1749040948625,2138,1741,2478
1749040948635,2013,1705,2513
1749040948645,2062,1771,2470
1749040948655,1983,1745,2427
1749040948665,1955,1771,2318
1749040948675,1907,1826,2303
1749040948685,1910,1840,2253
1749040948695,1791,1821,2218
1749040948705,1809,1916,2239
1749040948715,1725,1942,2199
1749040948725,1761,1925,2086
1749040948735,1703,2030,2064
1749040948745,1645,2011,2055
1749040948755,1624,2085,1997
1749040948765,1609,2056,1965
1749040948775,1640,2070,1905
1749040948785,1592,2184,1873
1749040948795,1595,2206,1850
1749040948805,1581,2151,1814
1749040948815,1578,2195,1752
1749040948825,1537,2260,1678
1749040948835,1527,2285,1668
1749040948845,1559,2343,1604
1749040948855,1503,2361,1624
1749040948865,1547,2354,1583
1749040948875,1575,2342,1584
1749040948885,1547,2360,1515
1749040948895,1539,2423,1563
1749040948905,1644,2466,1539
1749040948915,1584,2486,1467
1749040948925,1667,2501,1450
1749040948935,1691,2450,1541
1749040948945,1664,2452,1521
1749040948955,1754,2516,1541
1749040948965,1769,2500,1511
1749040948975,1813,2466,1559
1749040948985,1818,2504,1530
1749040948995,1784,2539,1583
1749040949005,1874,2505,1621
1749040949015,1887,2505,1598
1749040949025,1944,2464,1677
1749040949035,2019,2481,1655
1749040949045,2047,2497,1694
1749040949055,2048,2421,1709
1749040949065,2100,2426,1808
1749040949075,2163,2371,1809
1749040949085,2208,2360,1903
1749040949095,2237,2364,1912
1749040949105,2219,2315,2001
1749040949115,2291,2277,1971
1749040949125,2268,2322,2071
1749040949135,2343,2290,2097
1749040949145,2321,2287,2179
1749040949155,2425,2168,2170
1749040949165,2374,2141,2214
1749040949175,2426,2198,2217
1749040949185,2452,2097,2257
1749040949195,2491,2056,2306
1749040949205,2525,2066,2365
1749040949215,2529,2039,2444
1749040949225,2565,1967,2415
1749040949235,2524,1964,2452
1749040949245,2571,1953,2515
1749040949255,2561,1938,2553
1749040949265,2527,1922,2595
1749040949275,2501,1866,2576
1749040949285,2498,1866,2603
1749040949295,2522,1831,2566
1749040949305,2502,1802,2597
1749040949315,2488,1763,2560
1749040949325,2449,1746,2587
1749040949335,2488,1703,2563
1749040949345,2488,1653,2542
1749040949355,2402,1625,2566
1749040949365,2410,1688,2510
1749040949375,2413,1603,2508
1749040949385,2336,1619,2547
1749040949395,2289,1594,2533
1749040949405,2257,1612,2422
1749040949415,2284,1601,2439
1749040949425,2267,1589,2418
1749040949435,2229,1597,2355
1749040949445,2142,1636,2302
1749040949455,2062,1619,2247
1749040949465,2103,1601,2234
1749040949475,2036,1621,2184
1749040949485,2014,1636,2153
1749040949495,1980,1605,2127
1749040949505,1908,1601,2062
1749040949515,1886,1616,2040
1749040949525,1828,1652,2016
1749040949535,1804,1715,1956
1749040949545,1774,1682,1882
1749040949555,1787,1720,1873
1749040949565,1689,1744,1834
1749040949575,1696,1767,1756
1749040949585,1677,1775,1749
1749040949595,1621,1852,1673
1749040949605,1607,1911,1671
1749040949615,1624,1893,1655
1749040949625,1593,1971,1582
1749040949635,1587,1939,1607
1749040949645,1584,2034,1598
1749040949655,1602,2066,1490
1749040949665,1529,2034,1556
1749040949675,1553,2033,1490
1749040949685,1577,2071,1474
1749040949695,1568,2181,1544
1749040949705,1518,2207,1485
1749040949715,1577,2156,1540
1749040949725,1528,2260,1524
1749040949735,1629,2285,1492
1749040949745,1595,2321,1493
1749040949755,1645,2358,1499
1749040949765,1655,2384,1541
1749040949775,1697,2392,1563
1749040949785,1646,2400,1652
1749040949795,1685,2429,1608
1749040949805,1793,2400,1708
1749040949815,1833,2395,1699
1749040949825,1824,2473,1766
1749040949835,1886,2480,1751
1749040949845,1889,2467,1826
1749040949855,1897,2515,1828
1749040949865,1999,2527,1927
1749040949875,2007,2527,1958
1749040949885,2045,2472,2005
1749040949895,2063,2507,2099
1749040949905,2143,2524,2069
1749040949915,2167,2498,2115
1749040949925,2227,2519,2166
1749040949935,2176,2512,2179
1749040949945,2230,2438,2265
1749040949955,2299,2409,2349
1749040949965,2273,2409,2330
1749040949975,2317,2399,2410
1749040949985,2394,2442,2395
1749040949995,2384,2363,2419
1749040950005,2436,2406,2446
1749040950015,2429,2347,2486
1749040950025,2511,2368,2498
1749040950035,2502,2294,2517
1749040950045,2551,2248,2616
1749040950055,2571,2285,2546
1749040950065,2487,2255,2633
1749040950075,2562,2201,2637
1749040950085,2593,2186,2565
1749040950095,2538,2124,2600
1749040950105,2507,2117,2558
1749040950115,2512,2104,2542
1749040950125,2518,2052,2568
1749040950135,2568,2004,2546
1749040950145,2467,2015,2513
1749040950155,2510,1985,2552
1749040950165,2509,1949,2460
1749040950175,2442,1877,2499
1749040950185,2409,1864,2417
1749040950195,2421,1837,2370
1749040950205,2423,1817,2309
1749040950215,2341,1734,2275
1749040950225,2339,1709,2311
1749040950235,2304,1772,2238
1749040950245,2217,1687,2157
1749040950255,2279,1722,2142
1749040950265,2188,1659,2155
1749040950275,2130,1655,2096
1749040950285,2140,1683,1996
1749040950295,2069,1625,1934
1749040950305,2018,1647,1890
1749040950315,1966,1631,1936
1749040950325,1977,1596,1881
1749040950335,1939,1552,1844
1749040950345,1925,1581,1726
1749040950355,1865,1587,1753
1749040950365,1803,1646,1712
1749040950375,1763,1580,1619
1749040950385,1758,1642,1676
1749040950395,1688,1641,1617
1749040950405,1751,1599,1551
1749040950415,1687,1601,1517
1749040950425,1627,1660,1512
1749040950435,1597,1675,1523
1749040950445,1630,1728,1559
1749040950455,1607,1705,1528
1749040950465,1539,1787,1457
1749040950475,1573,1770,1487
1749040950485,1571,1742,1485
1749040950495,1510,1832,1463
1749040950505,1591,1861,1504
1749040950515,1585,1851,1519
1749040950525,1501,1902,1521
1749040950535,1596,1953,1595
1749040950545,1600,2007,1609
1749040950555,1540,1953,1668
1749040950565,1550,2033,1652
1749040950575,1598,2039,1669
1749040950585,1666,2051,1763
1749040950595,1644,2141,1775
1749040950605,1683,2142,1836
1749040950615,1656,2143,1854
1749040950625,1689,2222,1844
1749040950635,1768,2208,1874
1749040950645,1817,2227,1933
1749040950655,1850,2304,2013
1749040950665,1871,2349,2075
1749040950675,1864,2293,2055
1749040950685,1919,2343,2191
1749040950695,1935,2338,2204
1749040950705,1948,2429,2215
1749040950715,2004,2375,2236
1749040950725,2035,2445,2351
1749040950735,2146,2435,2334
1749040950745,2143,2480,2423
1749040950755,2156,2442,2385
1749040950765,2235,2441,2430
1749040950775,2200,2523,2435
1749040950785,2322,2477,2480
1749040950795,2319,2473,2543
1749040950805,2360,2471,2559
1749040950815,2371,2463,2602
1749040950825,2393,2497,2602
1749040950835,2417,2435,2614
1749040950845,2467,2513,2637
1749040950855,2518,2473,2638
1749040950865,2525,2447,2621
1749040950875,2483,2409,2613
1749040950885,2472,2378,2619
1749040950895,2486,2430,2546
1749040950905,2557,2410,2544
1749040950915,2500,2403,2534
1749040950925,2547,2320,2484
1749040950935,2516,2279,2523
1749040950945,2569,2266,2418
1749040950955,2521,2243,2454
1749040950965,2533,2211,2430
1749040950975,2564,2241,2373
1749040950985,2478,2195,2302
1749040950995,2462,2151,2284
1749040951005,2460,2070,2271
1749040951015,2429,2068,2147
1749040951025,2449,2101,2112
1749040951035,2418,2014,2150
1749040951045,2362,1971,2102
1749040951055,2327,2001,1983
1749040951065,2327,1956,1990
1749040951075,2243,1891,1928
1749040951085,2289,1864,1927
1749040951095,2241,1844,1839
1749040951105,2153,1771,1812
1749040951115,2174,1802,1764
1749040951125,2112,1766,1698
1749040951135,2090,1742,1681
1749040951145,2044,1735,1652
1749040951155,2006,1736,1630
1749040951165,1899,1663,1558
1749040951175,1865,1619,1574
1749040951185,1896,1626,1567
1749040951195,1859,1610,1569
1749040951205,1757,1613,1561
1749040951215,1819,1631,1478
1749040951225,1755,1613,1540
1749040951235,1666,1578,1483
1749040951245,1661,1576,1502
1749040951255,1667,1580,1485
1749040951265,1658,1564,1483
1749040951275,1586,1648,1514
1749040951285,1644,1586,1496
1749040951295,1574,1605,1510
1749040951305,1553,1585,1562
1749040951315,1518,1679,1593
1749040951325,1560,1632,1632
1749040951335,1566,1657,1669
1749040951345,1575,1657,1676
1749040951355,1593,1747,1764
1749040951365,1502,1765,1794
1749040951375,1513,1724,1760
1749040951385,1563,1782,1850
1749040951395,1614,1790,1912
1749040951405,1631,1769,1886
1749040951415,1611,1885,1982
1749040951425,1643,1823,1997
1749040951435,1686,1947,2043
1749040951445,1653,1894,2144
1749040951455,1676,1994,2107
1749040951465,1743,2022,2187
1749040951475,1775,2012,2264
1749040951485,1774,2022,2321
1749040951495,1868,2099,2359
1749040951505,1844,2090,2374
1749040951515,1933,2143,2425
1749040951525,1933,2135,2401
1749040951535,1974,2233,2469
1749040951545,2051,2200,2535
1749040951555,2050,2231,2535
1749040951565,2119,2333,2527
1749040951575,2115,2310,2553
1749040951585,2166,2336,2539
1749040951595,2229,2375,2605
1749040951605,2263,2392,2600
1749040951615,2287,2453,2644
1749040951625,2253,2395,2632
1749040951635,2358,2467,2637
1749040951645,2396,2419,2564
1749040951655,2381,2499,2584
1749040951665,2378,2500,2529
1749040951675,2471,2469,2598
1749040951685,2443,2541,2509
1749040951695,2503,2472,2539
1749040951705,2547,2489,2463
1749040951715,2471,2487,2467
1749040951725,2500,2449,2414
1749040951735,2545,2453,2340
1749040951745,2505,2502,2318
1749040951755,2525,2513,2274
1749040951765,2504,2466,2288
1749040951775,2530,2472,2272
1749040951785,2510,2415,2232
1749040951795,2509,2379,2158
1749040951805,2510,2436,2119
1749040951815,2494,2386,2055
1749040951825,2499,2374,1969
1749040951835,2487,2360,1967
1749040951845,2482,2307,1896
1749040951855,2389,2253,1846
1749040951865,2449,2294,1792
1749040951875,2390,2269,1820
1749040951885,2333,2232,1728
1749040951895,2323,2167,1681
1749040951905,2314,2178,1711
1749040951915,2299,2157,1659
1749040951925,2208,2109,1670
1749040951935,2210,2025,1635
1749040951945,2134,2055,1549
1749040951955,2084,1970,1538
1749040951965,2067,1953,1503
1749040951975,2059,1888,1564
1749040951985,1952,1935,1496
1749040951995,1946,1823,1496
1749040952005,1916,1831,1478
1749040952015,1863,1840,1520
1749040952025,1873,1816,1464
1749040952035,1859,1796,1470
1749040952045,1829,1762,1558
1749040952055,1717,1747,1538
1749040952065,1755,1695,1590
1749040952075,1728,1635,1546
1749040952085,1675,1714,1622
1749040952095,1673,1603,1670
1749040952105,1635,1627,1677
1749040952115,1646,1632,1713
1749040952125,1634,1588,1704
1749040952135,1540,1611,1808
1749040952145,1561,1646,1754
1749040952155,1544,1555,1837
1749040952165,1599,1630,1929
1749040952175,1548,1638,1961
1749040952185,1559,1583,1998
1749040952195,1514,1644,2049
1749040952205,1574,1618,2040
1749040952215,1573,1581,2154
1749040952225,1538,1632,2161
1749040952235,1546,1674,2236
1749040952245,1640,1634,2258
1749040952255,1589,1641,2245
1749040952265,1642,1689,2355
1749040952275,1620,1692,2360
1749040952285,1697,1793,2376
1749040952295,1686,1767,2451
1749040952305,1707,1806,2465
1749040952315,1738,1828,2499
1749040952325,1797,1840,2559
1749040952335,1891,1874,2541
1749040952345,1902,1909,2565
1749040952355,1918,1980,2521
1749040952365,1998,1952,2631
1749040952375,1980,2000,2543
1749040952385,2062,2066,2548
1749040952395,2030,2094,2580
1749040952405,2121,2137,2589
1749040952415,2162,2150,2590
1749040952425,2145,2174,2588
1749040952435,2240,2162,2572
1749040952445,2286,2201,2511
1749040952455,2265,2215,2550
1749040952465,2358,2232,2485
1749040952475,2356,2285,2516
1749040952485,2429,2341,2451
1749040952495,2360,2371,2411
1749040952505,2436,2406,2424
1749040952515,2481,2383,2335
1749040952525,2504,2442,2314
1749040952535,2475,2391,2242
1749040952545,2553,2456,2233
1749040952555,2563,2476,2193
1749040952565,2581,2449,2141
1749040952575,2579,2506,2085
1749040952585,2506,2533,2025
1749040952595,2541,2502,2041
1749040952605,2500,2516,1976
1749040952615,2587,2478,1929
1749040952625,2539,2479,1896
1749040952635,2518,2464,1820
1749040952645,2510,2458,1796
1749040952655,2497,2534,1744
1749040952665,2501,2465,1712
1749040952675,2440,2485,1687
1749040952685,2483,2475,1701
1749040952695,2444,2439,1635
1749040952705,2405,2434,1606
1749040952715,2407,2370,1545
1749040952725,2282,2425,1547
1749040952735,2260,2408,1500
1749040952745,2300,2387,1509
1749040952755,2222,2328,1511
1749040952765,2175,2315,1532
1749040952775,2176,2258,1468
1749040952785,2078,2250,1481
1749040952795,2079,2192,1524
1749040952805,2017,2156,1496
1749040952815,2010,2176,1473
1749040952825,1985,2111,1570
1749040952835,1967,2062,1596
1749040952845,1949,2048,1557
1749040952855,1902,2021,1573
1749040952865,1801,1997,1632
1749040952875,1776,1992,1647
1749040952885,1759,1881,1728
1749040952895,1770,1943,1698
1749040952905,1677,1892,1740
1749040952915,1652,1832,1847
1749040952925,1652,1858,1866
1749040952935,1614,1739,1883
1749040952945,1615,1799,1929
1749040952955,1549,1703,2024
1749040952965,1535,1748,1978
1749040952975,1524,1710,2017
1749040952985,1571,1645,2146
1749040952995,1541,1665,2165
1749040953005,1564,1693,2188
1749040953015,1593,1624,2229
1749040953025,1577,1622,2331
1749040953035,1582,1655,2285
1749040953045,1569,1598,2410
1749040953055,1595,1615,2372
1749040953065,1591,1585,2425
1749040953075,1607,1596,2432
1749040953085,1605,1578,2439
1749040953095,1682,1585,2552
1749040953105,1663,1654,2565
1749040953115,1677,1568,2527
1749040953125,1691,1597,2617
1749040953135,1752,1634,2560
1749040953145,1806,1659,2622
1749040953155,1829,1673,2555
1749040953165,1812,1693,2581
1749040953175,1869,1753,2593
1749040953185,1891,1757,2581
1749040953195,1957,1716,2537
1749040953205,1998,1737,2524
1749040953215,2028,1824,2578
1749040953225,2068,1808,2483
1749040953235,2101,1839,2512
1749040953245,2104,1904,2505
1749040953255,2132,1862,2430
1749040953265,2243,1975,2443
1749040953275,2220,1919,2406
1749040953285,2325,2018,2334
1749040953295,2278,1987,2314
1749040953305,2369,2029,2269
1749040953315,2377,2074,2188
1749040953325,2419,2129,2184
1749040953335,2456,2143,2176
1749040953345,2427,2175,2049
1749040953355,2491,2215,2064
1749040953365,2511,2221,2044
1749040953375,2526,2288,1971
1749040953385,2556,2317,1965
1749040953395,2550,2323,1889
1749040953405,2529,2337,1860
1749040953415,2523,2394,1817
1749040953425,2572,2424,1755
1749040953435,2586,2416,1670
1749040953445,2532,2429,1716
1749040953455,2508,2425,1649
1749040953465,2517,2427,1578
1749040953475,2555,2511,1551
1749040953485,2479,2497,1587
1749040953495,2499,2531,1503
1749040953505,2421,2525,1529
1749040953515,2406,2526,1528
1749040953525,2447,2462,1486
1749040953535,2413,2530,1506
1749040953545,2338,2514,1459
1749040953555,2322,2521,1495
1749040953565,2356,2438,1517
1749040953575,2264,2503,1513
1749040953585,2193,2486,1527
1749040953595,2233,2401,1542
1749040953605,2147,2441,1530
1749040953615,2091,2375,1532
1749040953625,2057,2403,1568
1749040953635,2027,2371,1679
1749040953645,2007,2375,1704
1749040953655,1943,2319,1687
1749040953665,1940,2266,1713
1749040953675,1940,2335,1746
1749040953685,1925,2303,1816
1749040953695,1871,2203,1812
1749040953705,1774,2189,1911
1749040953715,1781,2141,1926
1749040953725,1777,2156,1945
1749040953735,1703,2133,2064
1749040953745,1676,2098,2056
1749040953755,1657,2059,2093
1749040953765,1593,2006,2109
1749040953775,1607,2009,2176
1749040953785,1619,1981,2283
1749040953795,1579,1935,2319
1749040953805,1561,1893,2323
1749040953815,1567,1868,2313
1749040953825,1528,1824,2364
1749040953835,1583,1794,2394
1749040953845,1499,1793,2414
1749040953855,1594,1758,2500
1749040953865,1564,1730,2491
1749040953875,1533,1713,2580
1749040953885,1559,1712,2510
1749040953895,1554,1664,2529
1749040953905,1608,1646,2560
1749040953915,1613,1681,2602
1749040953925,1601,1617,2646
1749040953935,1656,1587,2622
1749040953945,1715,1618,2593
1749040953955,1709,1604,2558
1749040953965,1757,1621,2557
1749040953975,1787,1549,2613
1749040953985,1758,1588,2499
1749040953995,1872,1556,2521
1749040954005,1822,1569,2539
1749040954015,1864,1572,2513
1749040954025,1905,1624,2403
1749040954035,1953,1613,2394
1749040954045,1997,1606,2402
1749040954055,2018,1682,2323
1749040954065,2052,1633,2321
1749040954075,2109,1685,2244
1749040954085,2208,1705,2209
1749040954095,2223,1676,2174
1749040954105,2189,1722,2111
1749040954115,2269,1822,2068
1749040954125,2261,1790,2004
1749040954135,2359,1874,2000
1749040954145,2361,1870,1921
1749040954155,2347,1895,1921
1749040954165,2391,1925,1858
1749040954175,2417,1919,1856
1749040954185,2494,1971,1762
1749040954195,2487,2040,1775
1749040954205,2482,2009,1705
1749040954215,2511,2049,1648
1749040954225,2491,2089,1682
1749040954235,2519,2141,1611
1749040954245,2548,2111,1563
1749040954255,2531,2208,1554
1749040954265,2571,2182,1528
1749040954275,2569,2206,1535
1749040954285,2571,2307,1483
1749040954295,2538,2320,1552
1749040954305,2555,2347,1481
1749040954315,2475,2305,1475
1749040954325,2509,2401,1532
1749040954335,2497,2407,1547
1749040954345,2506,2365,1541
1749040954355,2451,2470,1492
1749040954365,2362,2415,1517
1749040954375,2381,2462,1554
1749040954385,2359,2433,1585
1749040954395,2298,2440,1640
1749040954405,2271,2519,1586
1749040954415,2274,2539,1631
1749040954425,2228,2521,1734
1749040954435,2134,2487,1741
1749040954445,2118,2500,1787
1749040954455,2070,2482,1780
1749040954465,2099,2536,1864
1749040954475,2029,2465,1881
1749040954485,1978,2429,1912
1749040954495,1938,2499,2015
1749040954505,1878,2407,1998
1749040954515,1884,2452,2068
1749040954525,1895,2406,2070
1749040954535,1839,2378,2162
1749040954545,1798,2428,2189
1749040954555,1787,2375,2206
1749040954565,1683,2371,2318
1749040954575,1705,2311,2309
1749040954585,1711,2329,2330
1749040954595,1598,2210,2357
1749040954605,1582,2225,2450
1749040954615,1582,2221,2475
1749040954625,1547,2205,2460
1749040954635,1527,2124,2492
1749040954645,1608,2089,2574
1749040954655,1576,2127,2607
1749040954665,1532,2090,2614
1749040954675,1579,1972,2554
1749040954685,1591,1966,2602
1749040954695,1503,1940,2617
1749040954705,1585,1958,2622
1749040954715,1589,1924,2640
1749040954725,1594,1826,2615
1749040954735,1582,1810,2559
1749040954745,1560,1804,2550
1749040954755,1637,1759,2531
1749040954765,1689,1717,2487
1749040954775,1662,1746,2452
1749040954785,1743,1690,2449
1749040954795,1724,1664,2411
1749040954805,1769,1681,2368
1749040954815,1740,1707,2368
1749040954825,1814,1664,2316
1749040954835,1886,1596,2322
1749040954845,1876,1621,2217
1749040954855,1967,1571,2193
1749040954865,1968,1588,2214
1749040954875,1955,1577,2107
1749040954885,2035,1619,2114
1749040954895,2082,1612,2087
1749040954905,2062,1640,1955
1749040954915,2188,1596,1948
1749040954925,2185,1607,1911
1749040954935,2192,1595,1900
1749040954945,2214,1635,1826
1749040954955,2290,1592,1741
1749040954965,2365,1689,1736
1749040954975,2354,1717,1702
1749040954985,2380,1697,1675
1749040954995,2412,1721,1652
1749040955005,2470,1771,1565
1749040955015,2437,1724,1598
1749040955025,2514,1749,1573
1749040955035,2535,1789,1576
1749040955045,2559,1796,1561
1749040955055,2512,1869,1560
1749040955065,2575,1913,1482
1749040955075,2532,1909,1496
1749040955085,2550,1918,1537
1749040955095,2538,1923,1549
1749040955105,2558,1966,1458
1749040955115,2587,2010,1469
1749040955125,2512,2112,1502
1749040955135,2571,2143,1575
1749040955145,2557,2145,1516
1749040955155,2494,2191,1540
1749040955165,2508,2235,1654
1749040955175,2496,2182,1644
1749040955185,2402,2205,1660
1749040955195,2409,2253,1688
1749040955205,2381,2252,1730
1749040955215,2357,2294,1773
1749040955225,2326,2321,1766
1749040955235,2335,2324,1891
1749040955245,2276,2391,1935
1749040955255,2275,2367,1897
1749040955265,2241,2399,1978
1749040955275,2174,2485,2005
1749040955285,2151,2461,2036
1749040955295,2135,2449,2141
1749040955305,2019,2522,2130
1749040955315,2042,2489,2179
1749040955325,1935,2508,2233
1749040955335,1890,2483,2327
1749040955345,1873,2475,2286
1749040955355,1905,2497,2324
1749040955365,1830,2537,2360
1749040955375,1808,2490,2455
1749040955385,1740,2453,2483
1749040955395,1703,2475,2521
1749040955405,1697,2470,2511
1749040955415,1723,2449,2552
1749040955425,1614,2394,2532
1749040955435,1592,2383,2612
1749040955445,1644,2358,2608
1749040955455,1610,2385,2608
1749040955465,1532,2340,2563
1749040955475,1518,2360,2567
1749040955485,1526,2346,2642
1749040955495,1517,2242,2567
1749040955505,1532,2302,2575
1749040955515,1567,2203,2544
1749040955525,1575,2174,2529
1749040955535,1591,2191,2497
1749040955545,1562,2145,2473
1749040955555,1556,2083,2502
1749040955565,1567,2076,2446
1749040955575,1631,2050,2401
1749040955585,1578,1984,2377
1749040955595,1661,1951,2364
1749040955605,1632,1938,2294
1749040955615,1683,1900,2241
1749040955625,1758,1916,2184
1749040955635,1767,1895,2168
1749040955645,1746,1787,2099
1749040955655,1784,1830,2037
1749040955665,1841,1792,2027
1749040955675,1903,1749,1996
1749040955685,1924,1730,1965
1749040955695,1974,1676,1901
1749040955705,1936,1737,1911
1749040955715,2025,1649,1862
1749040955725,2013,1692,1765
1749040955735,2111,1686,1771
1749040955745,2151,1622,1700
1749040955755,2194,1638,1652
1749040955765,2242,1655,1630
1749040955775,2254,1617,1658
1749040955785,2295,1581,1619
1749040955795,2341,1615,1608
1749040955805,2365,1586,1588
1749040955815,2336,1606,1506
1749040955825,2398,1578,1523
1749040955835,2469,1648,1483
1749040955845,2429,1650,1549
1749040955855,2424,1646,1486
1749040955865,2442,1618,1522
1749040955875,2527,1630,1476
1749040955885,2545,1722,1465
1749040955895,2508,1694,1490
1749040955905,2571,1689,1567
1749040955915,2520,1683,1598
1749040955925,2535,1782,1570
1749040955935,2548,1742,1631
1749040955945,2561,1852,1595
1749040955955,2509,1862,1636
1749040955965,2502,1905,1744
1749040955975,2541,1907,1716
1749040955985,2544,1886,1763
1749040955995,2465,1974,1784
1749040956005,2506,2007,1824
1749040956015,2436,2014,1916
1749040956025,2424,2012,1976
1749040956035,2432,2118,2022
1749040956045,2350,2060,2045
1749040956055,2298,2152,2050
1749040956065,2326,2201,2105
1749040956075,2236,2231,2189
1749040956085,2275,2256,2243
1749040956095,2169,2292,2282
1749040956105,2140,2298,2258
1749040956115,2136,2259,2364
1749040956125,2089,2281,2350
1749040956135,2019,2364,2442
1749040956145,2040,2354,2408
1749040956155,2011,2394,2462
1749040956165,1968,2410,2456
1749040956175,1887,2396,2472
1749040956185,1828,2399,2525
1749040956195,1839,2508,2544
1749040956205,1767,2465,2551
1749040956215,1729,2455,2587
1749040956225,1784,2466,2642
1749040956235,1664,2491,2617
1749040956245,1698,2468,2593
1749040956255,1645,2459,2617
1749040956265,1626,2455,2546
1749040956275,1591,2536,2527
1749040956285,1629,2438,2523
1749040956295,1615,2499,2552
1749040956305,1543,2469,2498
1749040956315,1534,2496,2519
1749040956325,1603,2467,2495
1749040956335,1562,2437,2464
1749040956345,1522,2387,2390
1749040956355,1530,2348,2376
1749040956365,1568,2410,2301
1749040956375,1604,2317,2280
1749040956385,1559,2310,2206
1749040956395,1596,2308,2260
1749040956405,1565,2270,2142
1749040956415,1630,2287,2078
1749040956425,1681,2180,2077
1749040956435,1660,2176,2085
1749040956445,1685,2179,1958
1749040956455,1717,2172,1900
1749040956465,1712,2055,1864
1749040956475,1728,2075,1842
1749040956485,1786,2029,1788
1749040956495,1791,2017,1750
1749040956505,1848,1929,1735
1749040956515,1945,1908,1691
1749040956525,1927,1946,1717
1749040956535,2001,1857,1678
1749040956545,2031,1910,1629
1749040956555,2012,1835,1623
1749040956565,2086,1847,1535
1749040956575,2108,1814,1588
1749040956585,2197,1739,1547
1749040956595,2181,1781,1534
1749040956605,2236,1719,1544
1749040956615,2280,1660,1539
1749040956625,2253,1642,1487
1749040956635,2379,1608,1471
1749040956645,2389,1684,1530
1749040956655,2353,1598,1500
1749040956665,2426,1615,1552
1749040956675,2396,1654,1533
1749040956685,2475,1613,1520
1749040956695,2516,1571,1598
1749040956705,2507,1631,1629
1749040956715,2493,1574,1643
1749040956725,2523,1551,1628
1749040956735,2571,1555,1713
1749040956745,2552,1658,1770
1749040956755,2581,1626,1736
1749040956765,2593,1614,1830
1749040956775,2505,1675,1837
1749040956785,2495,1626,1901
1749040956795,2554,1702,1941
1749040956805,2561,1688,1948
1749040956815,2501,1693,2075
1749040956825,2458,1711,2074
1749040956835,2508,1724,2106
1749040956845,2458,1741,2195
1749040956855,2420,1823,2254
1749040956865,2408,1882,2277
1749040956875,2409,1859,2273
1749040956885,2384,1910,2339
1749040956895,2333,1965,2354
1749040956905,2238,1979,2377
1749040956915,2209,2002,2449
1749040956925,2211,2052,2493
1749040956935,2162,2090,2514
1749040956945,2150,2036,2502
1749040956955,2151,2073,2587
1749040956965,2054,2166,2523
1749040956975,2001,2177,2601
1749040956985,1983,2150,2555
1749040956995,1981,2273,2569
1749040957005,1883,2273,2618
1749040957015,1906,2277,2628
1749040957025,1879,2260,2574
1749040957035,1834,2293,2581
1749040957045,1765,2332,2531
1749040957055,1723,2347,2559
1749040957065,1703,2377,2547
1749040957075,1697,2407,2511
1749040957085,1700,2401,2515
1749040957095,1637,2493,2448
1749040957105,1673,2494,2410
1749040957115,1656,2437,2428
1749040957125,1593,2487,2410
1749040957135,1625,2460,2307
1749040957145,1556,2525,2275
1749040957155,1592,2530,2242
1749040957165,1538,2544,2209
1749040957175,1533,2541,2151
1749040957185,1517,2504,2138
1749040957195,1578,2442,2079
1749040957205,1529,2479,2031
1749040957215,1611,2494,1949
1749040957225,1561,2478,1903
1749040957235,1552,2475,1943
1749040957245,1628,2380,1872
1749040957255,1632,2412,1805
1749040957265,1660,2431,1739
1749040957275,1717,2346,1737
1749040957285,1725,2363,1676
1749040957295,1740,2360,1686
1749040957305,1781,2317,1654
1749040957315,1800,2325,1566
1749040957325,1859,2291,1609
1749040957335,1871,2211,1570
1749040957345,1908,2177,1540
1749040957355,1923,2172,1533
1749040957365,1988,2164,1545
1749040957375,1987,2083,1494
1749040957385,2006,2095,1485
1749040957395,2112,2077,1548
1749040957405,2120,1964,1467
1749040957415,2119,1951,1499
1749040957425,2206,1995,1469
1749040957435,2170,1946,1481
1749040957445,2283,1899,1549
1749040957455,2264,1899,1581
1749040957465,2292,1800,1541
1749040957475,2338,1790,1572
1749040957485,2387,1796,1651
1749040957495,2410,1756,1705
1749040957505,2418,1706,1746
1749040957515,2438,1690,1771
1749040957525,2426,1713,1816
1749040957535,2491,1634,1856
1749040957545,2540,1617,1894
1749040957555,2517,1611,1945
1749040957565,2502,1591,1985
1749040957575,2504,1594,2021
1749040957585,2593,1610,2061
1749040957595,2539,1562,2053
1749040957605,2555,1553,2111
1749040957615,2521,1605,2155
1749040957625,2491,1607,2264
1749040957635,2479,1555,2215
1749040957645,2512,1578,2261
1749040957655,2535,1624,2369
1749040957665,2449,1659,2347
1749040957675,2460,1591,2433
1749040957685,2465,1673,2453
1749040957695,2466,1687,2504
1749040957705,2373,1693,2470
1749040957715,2391,1710,2560
1749040957725,2323,1760,2539
1749040957735,2249,1777,2572
1749040957745,2263,1740,2583
1749040957755,2235,1807,2617
1749040957765,2214,1820,2603
1749040957775,2194,1854,2636
1749040957785,2084,1894,2598
1749040957795,2130,1940,2619
1749040957805,2004,1881,2552
1749040957815,2041,1991,2618
1749040957825,1983,2020,2536
1749040957835,1965,2012,2568
1749040957845,1854,2079,2489
1749040957855,1905,2102,2466
1749040957865,1841,2107,2469
1749040957875,1784,2181,2453
1749040957885,1714,2169,2395
1749040957895,1731,2217,2373
1749040957905,1671,2205,2340
1749040957915,1655,2287,2309
1749040957925,1612,2231,2205
1749040957935,1668,2280,2190
1749040957945,1618,2352,2174
1749040957955,1604,2405,2136
1749040957965,1565,2339,2110
1749040957975,1533,2355,2036
1749040957985,1597,2415,1964
1749040957995,1543,2398,1989
1749040958005,1575,2422,1944
1749040958015,1550,2485,1843
1749040958025,1525,2468,1809
1749040958035,1599,2479,1820
1749040958045,1554,2469,1784
1749040958055,1555,2453,1699
1749040958065,1581,2479,1627
1749040958075,1612,2493,1639
1749040958085,1658,2502,1604
1749040958095,1620,2508,1588
1749040958105,1709,2441,1586
1749040958115,1725,2497,1523
1749040958125,1693,2426,1545
1749040958135,1701,2496,1558
1749040958145,1810,2464,1539
1749040958155,1831,2425,1520
1749040958165,1840,2459,1520
1749040958175,1875,2399,1528
1749040958185,1882,2390,1465
1749040958195,1927,2335,1497
1749040958205,1980,2374,1563
1749040958215,2022,2309,1551
1749040958225,2024,2308,1567
1749040958235,2134,2224,1548
1749040958245,2122,2238,1582
1749040958255,2189,2191,1626
1749040958265,2215,2153,1666
1749040958275,2242,2125,1713
1749040958285,2315,2047,1718
1749040958295,2357,2081,1807
1749040958305,2390,2052,1832
1749040958315,2416,2003,1832
1749040958325,2408,2020,1928
1749040958335,2426,1932,1936
1749040958345,2425,1936,2039
1749040958355,2497,1898,2092
1749040958365,2505,1881,2135
1749040958375,2471,1811,2130
1749040958385,2503,1806,2148
1749040958395,2542,1798,2194
1749040958405,2553,1713,2289
1749040958415,2549,1691,2313
1749040958425,2527,1689,2326
1749040958435,2587,1713,2349
1749040958445,2594,1677,2408
1749040958455,2555,1660,2398
1749040958465,2566,1618,2447
1749040958475,2507,1640,2520
1749040958485,2509,1642,2505
1749040958495,2516,1581,2589
1749040958505,2449,1625,2571
1749040958515,2430,1647,2575
1749040958525,2470,1647,2613
1749040958535,2393,1609,2583
1749040958545,2404,1562,2608
1749040958555,2294,1638,2606
1749040958565,2317,1563,2584
1749040958575,2297,1602,2552
1749040958585,2227,1601,2582
1749040958595,2164,1621,2572
1749040958605,2135,1615,2519
1749040958615,2164,1712,2544
1749040958625,2102,1709,2497
1749040958635,2053,1704,2479
1749040958645,1997,1785,2399
1749040958655,2008,1802,2437
1749040958665,1978,1808,2353
1749040958675,1939,1860,2310
1749040958685,1892,1831,2299
1749040958695,1808,1892,2206
1749040958705,1794,1872,2214
1749040958715,1756,1956,2189
1749040958725,1784,1934,2083
1749040958735,1715,2009,2026
1749040958745,1676,1997,2014
1749040958755,1652,2014,1956
1749040958765,1604,2069,1917
1749040958775,1595,2107,1934
1749040958785,1557,2105,1856
1749040958795,1634,2120,1814
1749040958805,1591,2175,1801
1749040958815,1606,2214,1732
1749040958825,1526,2298,1669
1749040958835,1583,2300,1702
1749040958845,1559,2325,1622
1749040958855,1575,2354,1635
1749040958865,1566,2363,1588
1749040958875,1605,2346,1546
1749040958885,1605,2365,1528
1749040958895,1590,2390,1541
1749040958905,1630,2447,1470
1749040958915,1624,2465,1543
1749040958925,1681,2506,1461
1749040958935,1650,2428,1453
1749040958945,1695,2440,1509
1749040958955,1707,2535,1523
1749040958965,1707,2533,1528
1749040958975,1752,2466,1571
1749040958985,1774,2508,1518
1749040958995,1837,2471,1593
1749040959005,1905,2478,1607
1749040959015,1926,2497,1641
1749040959025,1899,2431,1684
1749040959035,2007,2476,1682
1749040959045,2033,2473,1697
1749040959055,2036,2442,1723
1749040959065,2048,2419,1769
1749040959075,2107,2436,1868
1749040959085,2198,2400,1908
1749040959095,2212,2363,1874
1749040959105,2193,2368,1990
1749040959115,2262,2290,2049
1749040959125,2283,2283,2094
1749040959135,2355,2225,2057
1749040959145,2328,2253,2118
1749040959155,2399,2214,2201
1749040959165,2449,2156,2257
1749040959175,2404,2122,2254
1749040959185,2475,2159,2344
1749040959195,2499,2075,2358
1749040959205,2468,2024,2403
1749040959215,2514,2077,2376
1749040959225,2541,1978,2467
1749040959235,2560,1934,2436
1749040959245,2544,1911,2523
1749040959255,2540,1933,2491
1749040959265,2569,1924,2565
1749040959275,2541,1851,2545
1749040959285,2528,1795,2585
1749040959295,2558,1792,2617
1749040959305,2533,1723,2593
1749040959315,2527,1707,2575
1749040959325,2484,1729,2585
1749040959335,2472,1692,2579
1749040959345,2412,1681,2601
1749040959355,2418,1654,2522
1749040959365,2428,1635,2554
1749040959375,2398,1597,2498
1749040959385,2343,1662,2558
1749040959395,2341,1588,2465
1749040959405,2338,1621,2453
1749040959415,2254,1643,2417
1749040959425,2213,1550,2402
1749040959435,2156,1564,2354
1749040959445,2194,1566,2332
1749040959455,2141,1620,2266
1749040959465,2078,1632,2201
1749040959475,1991,1631,2154
1749040959485,2002,1611,2139
1749040959495,1964,1653,2097
1749040959505,1892,1687,2020
1749040959515,1855,1704,2053
1749040959525,1880,1711,1940
1749040959535,1807,1666,1895
1749040959545,1810,1746,1923
1749040959555,1804,1739,1875
1749040959565,1700,1748,1820
1749040959575,1720,1828,1759
1749040959585,1694,1857,1774
1749040959595,1687,1856,1718
1749040959605,1598,1887,1611
1749040959615,1594,1882,1630
1749040959625,1627,1904,1554
1749040959635,1565,1947,1561
1749040959645,1591,1941,1570
1749040959655,1563,2027,1501
1749040959665,1568,2004,1489
1749040959675,1573,2031,1531
1749040959685,1525,2096,1546
1749040959695,1591,2187,1458
1749040959705,1576,2206,1529
1749040959715,1539,2188,1507
1749040959725,1614,2274,1469
1749040959735,1546,2231,1524
1749040959745,1627,2257,1529
1749040959755,1614,2268,1504
1749040959765,1655,2320,1593
1749040959775,1719,2319,1554
1749040959785,1686,2331,1606
1749040959795,1752,2405,1631
1749040959805,1754,2417,1672
1749040959815,1829,2396,1706
1749040959825,1836,2412,1798
1749040959835,1812,2498,1788
1749040959845,1897,2467,1879
1749040959855,1961,2441,1914
1749040959865,1972,2451,1882
1749040959875,1980,2489,1967
1749040959885,2023,2472,2018
1749040959895,2109,2486,2061
1749040959905,2066,2448,2091
1749040959915,2145,2461,2107
1749040959925,2156,2526,2220
1749040959935,2194,2437,2179
1749040959945,2301,2512,2277
1749040959955,2259,2480,2340
1749040959965,2323,2411,2387
1749040959975,2376,2381,2420
1749040959985,2376,2451,2396
1749040959995,2452,2370,2418
1749040960005,2402,2395,2503
1749040960015,2420,2365,2522
1749040960025,2489,2344,2555
1749040960035,2468,2326,2565
1749040960045,2518,2289,2556
1749040960055,2527,2270,2594
1749040960065,2485,2232,2612
1749040960075,2545,2184,2568
1749040960085,2521,2121,2615
1749040960095,2580,2094,2625
1749040960105,2551,2074,2581
1749040960115,2583,2057,2581
1749040960125,2489,1981,2599
1749040960135,2497,2045,2569
1749040960145,2469,1989,2544
1749040960155,2539,1950,2553
1749040960165,2474,1888,2505
1749040960175,2436,1867,2418
1749040960185,2434,1894,2384
1749040960195,2433,1841,2383
1749040960205,2399,1778,2321
1749040960215,2394,1740,2343
1749040960225,2351,1731,2261
1749040960235,2318,1719,2223
1749040960245,2218,1729,2161
1749040960255,2215,1649,2155
1749040960265,2150,1700,2100
1749040960275,2119,1701,2082
1749040960285,2150,1614,2027
1749040960295,2069,1586,1971
1749040960305,2001,1614,1917
1749040960315,2022,1634,1858
1749040960325,2006,1588,1835
1749040960335,1957,1549,1811
1749040960345,1889,1646,1718
1749040960355,1881,1579,1709
1749040960365,1853,1650,1645
1749040960375,1838,1631,1662
1749040960385,1811,1567,1635
1749040960395,1728,1578,1607
1749040960405,1682,1670,1561
1749040960415,1670,1659,1598
1749040960425,1687,1649,1542
1749040960435,1671,1653,1506
1749040960445,1652,1680,1489
1749040960455,1614,1671,1452
1749040960465,1620,1758,1449
1749040960475,1617,1804,1545
1749040960485,1542,1750,1462
1749040960495,1530,1824,1530
1749040960505,1540,1874,1500
1749040960515,1502,1822,1583
1749040960525,1558,1859,1582
1749040960535,1555,1891,1615
1749040960545,1562,1961,1626
1749040960555,1558,1989,1599
1749040960565,1575,2031,1640
1749040960575,1630,2051,1639
1749040960585,1631,2035,1669
1749040960595,1623,2128,1722
1749040960605,1612,2167,1763
1749040960615,1705,2186,1879
1749040960625,1697,2199,1830
1749040960635,1699,2240,1923
1749040960645,1786,2287,1936
1749040960655,1765,2306,2041
1749040960665,1846,2324,2036
1749040960675,1912,2350,2057
1749040960685,1957,2383,2100
1749040960695,1990,2368,2182
1749040960705,1937,2450,2237
1749040960715,2037,2460,2243
1749040960725,2029,2397,2295
1749040960735,2099,2477,2374
1749040960745,2108,2493,2428
1749040960755,2152,2485,2385
1749040960765,2237,2487,2438
1749040960775,2264,2535,2527
1749040960785,2306,2494,2534
1749040960795,2305,2538,2500
1749040960805,2388,2498,2532
1749040960815,2409,2524,2600
1749040960825,2401,2507,2564
1749040960835,2416,2446,2636
1749040960845,2484,2463,2571
1749040960855,2505,2467,2564
1749040960865,2506,2467,2617
1749040960875,2455,2466,2554
1749040960885,2502,2410,2632
1749040960895,2532,2428,2534
1749040960905,2589,2376,2563
1749040960915,2558,2324,2555
1749040960925,2568,2337,2477
1749040960935,2538,2316,2479
1749040960945,2560,2249,2477
1749040960955,2546,2285,2455
1749040960965,2572,2265,2409
1749040960975,2492,2176,2373
1749040960985,2513,2186,2306
1749040960995,2476,2155,2312
1749040961005,2512,2141,2268
1749040961015,2489,2076,2204
1749040961025,2418,2025,2164
1749040961035,2388,2008,2148
1749040961045,2325,2019,2080
1749040961055,2380,1943,2036
1749040961065,2266,1900,1966
1749040961075,2244,1954,1906
1749040961085,2248,1864,1851
1749040961095,2159,1890,1827
1749040961105,2156,1861,1804
1749040961115,2136,1796,1738
1749040961125,2110,1757,1767
1749040961135,2045,1789,1738
1749040961145,1994,1771,1705
1749040961155,2028,1660,1609
1749040961165,1916,1726,1643
1749040961175,1877,1656,1542
1749040961185,1837,1630,1577
1749040961195,1853,1611,1539
1749040961205,1762,1590,1532
1749040961215,1796,1614,1535
1749040961225,1710,1615,1531
1749040961235,1758,1579,1545
1749040961245,1719,1560,1475
1749040961255,1653,1602,1544
1749040961265,1644,1550,1499
1749040961275,1604,1615,1565
1749040961285,1588,1569,1493
1749040961295,1614,1628,1578
1749040961305,1622,1642,1621
1749040961315,1534,1609,1599
1749040961325,1594,1696,1579
1749040961335,1591,1671,1655
1749040961345,1512,1692,1717
1749040961355,1554,1664,1767
1749040961365,1570,1724,1726
1749040961375,1584,1713,1841
1749040961385,1541,1774,1848
1749040961395,1595,1767,1838
1749040961405,1621,1779,1973
1749040961415,1574,1876,2000
1749040961425,1599,1901,2063
1749040961435,1683,1921,2012
1749040961445,1688,1940,2150
1749040961455,1678,1925,2181
1749040961465,1695,1984,2221
1749040961475,1794,1998,2284
1749040961485,1801,2051,2243
1749040961495,1794,2077,2328
1749040961505,1891,2167,2310
1749040961515,1943,2188,2389
1749040961525,1977,2190,2394
1749040961535,1953,2175,2419
1749040961545,2052,2266,2482
1749040961555,2008,2234,2560
1749040961565,2048,2266,2582
1749040961575,2155,2335,2550
1749040961585,2151,2389,2549
1749040961595,2195,2350,2576
1749040961605,2225,2403,2553
1749040961615,2265,2432,2547
1749040961625,2330,2472,2647
1749040961635,2307,2432,2610
1749040961645,2322,2407,2540
1749040961655,2402,2432,2565
1749040961665,2421,2460,2547
1749040961675,2457,2484,2572
1749040961685,2488,2525,2520
1749040961695,2529,2448,2483
1749040961705,2482,2511,2442
1749040961715,2562,2459,2444
1749040961725,2565,2532,2461
1749040961735,2558,2506,2411
1749040961745,2554,2450,2380
1749040961755,2570,2479,2270
1749040961765,2585,2453,2233
1749040961775,2581,2459,2224
1749040961785,2569,2425,2180
1749040961795,2575,2379,2141
1749040961805,2535,2368,2138
1749040961815,2474,2379,2107
1749040961825,2524,2390,1979
1749040961835,2478,2297,1939
1749040961845,2452,2299,1924
1749040961855,2391,2280,1871
1749040961865,2448,2232,1832
1749040961875,2404,2256,1747
1749040961885,2319,2251,1767
1749040961895,2356,2148,1760
1749040961905,2330,2121,1733
1749040961915,2251,2102,1634
1749040961925,2208,2105,1668
1749040961935,2227,2033,1577
1749040961945,2106,2014,1548
1749040961955,2100,1953,1503
1749040961965,2119,1915,1486
1749040961975,2001,1950,1569
1749040961985,1996,1921,1526
1749040961995,1962,1872,1551
1749040962005,1917,1800,1482
1749040962015,1884,1769,1471
1749040962025,1828,1833,1502
1749040962035,1778,1791,1547
1749040962045,1795,1727,1540
1749040962055,1735,1736,1537
1749040962065,1688,1688,1522
1749040962075,1719,1679,1600
1749040962085,1632,1703,1566
1749040962095,1638,1694,1634
1749040962105,1671,1591,1673
1749040962115,1582,1652,1640
1749040962125,1579,1649,1684
1749040962135,1574,1640,1717
1749040962145,1551,1642,1754
1749040962155,1566,1606,1878
1749040962165,1524,1580,1857
1749040962175,1539,1564,1897
1749040962185,1556,1650,1938
1749040962195,1544,1600,2001
1749040962205,1525,1618,2026
1749040962215,1586,1646,2097
1749040962225,1601,1670,2135
1749040962235,1585,1644,2194
1749040962245,1601,1653,2253
1749040962255,1651,1726,2253
1749040962265,1664,1717,2331
1749040962275,1701,1769,2380
1749040962285,1737,1789,2431
1749040962295,1747,1755,2466
1749040962305,1786,1829,2450
1749040962315,1803,1798,2506
1749040962325,1836,1807,2506
1749040962335,1850,1919,2523
1749040962345,1856,1888,2529
1749040962355,1928,1978,2557
1749040962365,1933,1915,2575
1749040962375,2012,1954,2541
1749040962385,2047,2022,2643
1749040962395,2062,2015,2564
1749040962405,2129,2128,2574
1749040962415,2149,2162,2549
1749040962425,2168,2124,2606
1749040962435,2192,2193,2586
1749040962445,2244,2227,2528
1749040962455,2326,2198,2553
1749040962465,2358,2219,2497
1749040962475,2343,2305,2434
1749040962485,2392,2344,2453
1749040962495,2367,2387,2382
1749040962505,2469,2367,2396
1749040962515,2501,2350,2314
1749040962525,2491,2383,2308
1749040962535,2446,2432,2319
1749040962545,2525,2436,2228
1749040962555,2504,2496,2206
1749040962565,2581,2463,2158
1749040962575,2529,2484,2055
1749040962585,2561,2490,2079
1749040962595,2556,2505,2017
1749040962605,2552,2447,1967
1749040962615,2507,2500,1935
1749040962625,2495,2519,1916
1749040962635,2482,2519,1828
1749040962645,2515,2512,1771
1749040962655,2481,2515,1743
1749040962665,2482,2465,1740
1749040962675,2457,2467,1712
1749040962685,2401,2405,1695
1749040962695,2460,2423,1650
1749040962705,2371,2400,1582
1749040962715,2334,2370,1552
1749040962725,2311,2376,1532
1749040962735,2341,2392,1522
1749040962745,2250,2371,1559
1749040962755,2198,2314,1460
1749040962765,2152,2334,1504
1749040962775,2178,2261,1523
1749040962785,2112,2264,1474
1749040962795,2051,2171,1454
1749040962805,2021,2159,1497
1749040962815,1995,2158,1522
1749040962825,1955,2163,1541
1749040962835,1921,2102,1577
1749040962845,1872,2046,1567
1749040962855,1886,2035,1614
1749040962865,1862,2016,1620
1749040962875,1843,1939,1626
1749040962885,1770,1941,1711
1749040962895,1729,1924,1743
1749040962905,1670,1849,1797
1749040962915,1675,1874,1803
1749040962925,1680,1795,1817
1749040962935,1620,1786,1851
1749040962945,1658,1725,1918
1749040962955,1546,1788,1976
1749040962965,1590,1728,2061
1749040962975,1538,1682,2097
1749040962985,1583,1642,2083
1749040962995,1575,1642,2170
1749040963005,1546,1621,2192
1749040963015,1547,1606,2243
1749040963025,1535,1580,2314
1749040963035,1557,1620,2338
1749040963045,1571,1631,2310
1749040963055,1534,1579,2433
1749040963065,1556,1617,2416
1749040963075,1561,1566,2475
1749040963085,1571,1614,2450
1749040963095,1620,1556,2513
1749040963105,1635,1640,2582
1749040963115,1727,1592,2511
1749040963125,1761,1646,2575
1749040963135,1759,1594,2538
1749040963145,1776,1692,2610
1749040963155,1817,1698,2565
1749040963165,1803,1693,2580
1749040963175,1896,1659,2555
1749040963185,1912,1684,2571
1749040963195,1996,1789,2602
1749040963205,1961,1764,2520
1749040963215,1978,1810,2549
1749040963225,2021,1815,2492
1749040963235,2147,1855,2457
1749040963245,2114,1842,2471
1749040963255,2152,1938,2488
1749040963265,2174,1905,2457
1749040963275,2267,1987,2345
1749040963285,2235,1950,2323
1749040963295,2315,2064,2337
1749040963305,2357,2019,2239
1749040963315,2380,2104,2194
1749040963325,2393,2077,2146
1749040963335,2412,2156,2123
1749040963345,2457,2224,2123
1749040963355,2435,2206,2070
1749040963365,2450,2251,1991
1749040963375,2491,2226,1924
1749040963385,2545,2304,1966
1749040963395,2526,2289,1865
1749040963405,2523,2342,1800
1749040963415,2519,2352,1761
1749040963425,2583,2377,1733
1749040963435,2596,2407,1738
1749040963445,2507,2401,1665
1749040963455,2505,2423,1667
1749040963465,2490,2451,1624
1749040963475,2526,2515,1637
1749040963485,2467,2522,1522
1749040963495,2501,2458,1499
1749040963505,2519,2518,1558
1749040963515,2418,2526,1477
1749040963525,2434,2509,1470
1749040963535,2397,2535,1465
1749040963545,2421,2449,1486
1749040963555,2364,2473,1505
1749040963565,2267,2515,1505
1749040963575,2263,2454,1512
1749040963585,2265,2452,1514
1749040963595,2192,2419,1492
1749040963605,2154,2411,1522
1749040963615,2110,2387,1586
1749040963625,2084,2412,1618
1749040963635,2065,2332,1594
1749040963645,2009,2317,1654
1749040963655,1968,2372,1647
1749040963665,1961,2327,1753
1749040963675,1935,2273,1814
1749040963685,1849,2249,1790
1749040963695,1817,2252,1895
1749040963705,1805,2158,1909
1749040963715,1732,2179,1892
1749040963725,1794,2161,2021
1749040963735,1730,2081,2064
1749040963745,1655,2052,2106
1749040963755,1708,2018,2068
1749040963765,1651,2027,2142
1749040963775,1584,1971,2217
1749040963785,1642,1999,2253
1749040963795,1577,1947,2270
1749040963805,1592,1945,2334
1749040963815,1577,1863,2409
1749040963825,1552,1840,2445
1749040963835,1502,1782,2452
1749040963845,1502,1742,2479
1749040963855,1587,1719,2526
1749040963865,1535,1780,2503
1749040963875,1541,1706,2576
1749040963885,1616,1720,2578
1749040963895,1550,1667,2583
1749040963905,1635,1661,2611
1749040963915,1637,1615,2558
1749040963925,1648,1617,2624
1749040963935,1614,1663,2623
1749040963945,1662,1598,2594
1749040963955,1655,1634,2632
1749040963965,1766,1578,2563
1749040963975,1719,1618,2599
1749040963985,1819,1619,2583
1749040963995,1809,1558,2501
1749040964005,1823,1652,2542
1749040964015,1880,1560,2428
1749040964025,1927,1637,2420
1749040964035,1935,1661,2461
1749040964045,2060,1604,2403
1749040964055,2000,1642,2313
1749040964065,2088,1688,2283
1749040964075,2121,1699,2233
1749040964085,2210,1731,2256
1749040964095,2177,1740,2175
1749040964105,2215,1754,2144
1749040964115,2237,1751,2101
1749040964125,2333,1752,2042
1749040964135,2362,1790,2032
1749040964145,2351,1843,1984
1749040964155,2373,1901,1874
1749040964165,2413,1865,1870
1749040964175,2440,1983,1866
1749040964185,2488,2016,1829
1749040964195,2457,2014,1741
1749040964205,2469,1984,1717
1749040964215,2536,2042,1724
1749040964225,2482,2111,1681
1749040964235,2573,2116,1626
1749040964245,2529,2127,1579
1749040964255,2510,2138,1596
1749040964265,2557,2211,1516
1749040964275,2502,2200,1533
1749040964285,2562,2291,1566
1749040964295,2563,2300,1550
1749040964305,2507,2309,1492
1749040964315,2478,2319,1513
1749040964325,2482,2351,1527
1749040964335,2507,2421,1484
1749040964345,2448,2445,1518
1749040964355,2388,2425,1535
1749040964365,2412,2459,1517
1749040964375,2394,2408,1524
1749040964385,2382,2490,1581
1749040964395,2307,2439,1597
1749040964405,2239,2493,1603
1749040964415,2227,2537,1617
1749040964425,2256,2496,1694
1749040964435,2210,2544,1695
1749040964445,2170,2529,1796
1749040964455,2114,2444,1841
1749040964465,2074,2534,1812
1749040964475,2056,2508,1873
1749040964485,2001,2499,1926
1749040964495,1948,2412,1982
1749040964505,1960,2469,2000
1749040964515,1900,2454,2094
1749040964525,1850,2439,2134
1749040964535,1814,2388,2203
1749040964545,1816,2365,2243
1749040964555,1704,2405,2213
1749040964565,1771,2318,2288
1749040964575,1651,2280,2348
1749040964585,1686,2240,2385
1749040964595,1635,2298,2449
1749040964605,1641,2235,2419
1749040964615,1637,2219,2450
1749040964625,1567,2156,2462
1749040964635,1604,2114,2527
1749040964645,1609,2110,2560
1749040964655,1572,2116,2558
1749040964665,1544,2058,2547
1749040964675,1563,2061,2550
1749040964685,1513,2001,2624
1749040964695,1598,1986,2587
1749040964705,1550,1958,2592
1749040964715,1601,1870,2573
1749040964725,1599,1915,2576
1749040964735,1568,1798,2583
1749040964745,1565,1824,2554
1749040964755,1672,1812,2500
1749040964765,1608,1756,2498
1749040964775,1636,1721,2504
1749040964785,1726,1699,2463
1749040964795,1756,1659,2414
1749040964805,1777,1721,2450
1749040964815,1772,1638,2419
1749040964825,1837,1655,2350
1749040964835,1864,1625,2262
1749040964845,1837,1591,2295
1749040964855,1948,1585,2242
1749040964865,2000,1575,2205
1749040964875,1989,1605,2096
1749040964885,2010,1640,2115
1749040964895,2097,1548,2064
1749040964905,2152,1553,1959
1749040964915,2101,1602,1973
1749040964925,2215,1602,1952
1749040964935,2226,1646,1843
1749040964945,2285,1672,1852
1749040964955,2287,1634,1788
1749040964965,2298,1697,1737
1749040964975,2318,1632,1725
1749040964985,2400,1656,1679
1749040964995,2403,1684,1596
1749040965005,2416,1744,1583
1749040965015,2490,1798,1599
1749040965025,2442,1796,1549
1749040965035,2463,1770,1507
1749040965045,2517,1781,1521
1749040965055,2476,1904,1532
1749040965065,2565,1833,1498
1749040965075,2558,1873,1514
1749040965085,2496,1948,1512
1749040965095,2592,1974,1509
1749040965105,2497,1978,1495
1749040965115,2494,1994,1472
1749040965125,2552,2104,1568
1749040965135,2481,2133,1512
1749040965145,2520,2086,1602
1749040965155,2549,2126,1632
1749040965165,2512,2195,1656
1749040965175,2416,2189,1661
1749040965185,2469,2257,1639
1749040965195,2374,2257,1746
1749040965205,2385,2323,1719
1749040965215,2327,2346,1800
1749040965225,2282,2352,1790
1749040965235,2270,2329,1868
1749040965245,2314,2354,1914
1749040965255,2256,2418,1927
1749040965265,2198,2398,1980
1749040965275,2136,2484,2018
1749040965285,2146,2437,2032
1749040965295,2079,2448,2111
1749040965305,2041,2484,2120
1749040965315,2037,2471,2200
1749040965325,1932,2529,2241
1749040965335,1926,2479,2284
1749040965345,1856,2467,2341
1749040965355,1850,2463,2418
1749040965365,1794,2525,2401
1749040965375,1820,2526,2413
1749040965385,1750,2451,2490
1749040965395,1757,2478,2510
1749040965405,1675,2444,2539
1749040965415,1660,2409,2562
1749040965425,1638,2440,2578
1749040965435,1649,2406,2563
1749040965445,1584,2374,2577
1749040965455,1596,2336,2579
1749040965465,1604,2311,2569
1749040965475,1525,2351,2633
1749040965485,1553,2307,2564
1749040965495,1526,2275,2545
1749040965505,1580,2224,2565
1749040965515,1547,2185,2563
1749040965525,1553,2196,2566
1749040965535,1588,2122,2545
1749040965545,1556,2120,2499
1749040965555,1531,2116,2436
1749040965565,1574,2118,2412
1749040965575,1618,2023,2411
1749040965585,1604,2028,2364
1749040965595,1667,2018,2334
1749040965605,1616,1944,2296
1749040965615,1638,1966,2240
1749040965625,1715,1862,2194
1749040965635,1763,1835,2160
1749040965645,1798,1786,2135
1749040965655,1855,1814,2046
1749040965665,1848,1819,2074
1749040965675,1870,1751,1975
1749040965685,1961,1699,1938
1749040965695,1945,1725,1952
1749040965705,2025,1675,1899
1749040965715,2051,1656,1838
1749040965725,2088,1652,1789
1749040965735,2141,1636,1712
1749040965745,2154,1658,1684
1749040965755,2190,1601,1663
1749040965765,2208,1637,1665
1749040965775,2256,1623,1662
1749040965785,2290,1590,1563
1749040965795,2311,1613,1582
1749040965805,2372,1578,1550
1749040965815,2361,1594,1569
1749040965825,2441,1589,1564
1749040965835,2432,1630,1519
1749040965845,2408,1582,1467
1749040965855,2463,1654,1473
1749040965865,2537,1671,1459
1749040965875,2505,1691,1491
1749040965885,2531,1695,1477
1749040965895,2566,1714,1478
1749040965905,2522,1713,1560
1749040965915,2531,1739,1521
1749040965925,2595,1716,1574
1749040965935,2552,1729,1570
1749040965945,2514,1804,1591
1749040965955,2560,1780,1645
1749040965965,2534,1831,1660
1749040965975,2474,1920,1730
1749040965985,2552,1889,1785
1749040965995,2519,1988,1857
1749040966005,2505,1982,1846
1749040966015,2443,1970,1900
1749040966025,2422,2064,1896
1749040966035,2433,2067,2028
1749040966045,2392,2092,2025
1749040966055,2315,2180,2073
1749040966065,2268,2131,2097
1749040966075,2308,2188,2180
1749040966085,2243,2183,2184
1749040966095,2171,2290,2298
1749040966105,2205,2262,2336
1749040966115,2155,2331,2295
1749040966125,2130,2290,2361
1749040966135,2011,2332,2449
1749040966145,2005,2336,2424
1749040966155,1965,2428,2466
1749040966165,1935,2437,2463
1749040966175,1960,2465,2512
1749040966185,1904,2491,2521
1749040966195,1856,2444,2572
1749040966205,1801,2480,2587
1749040966215,1795,2432,2588
1749040966225,1720,2481,2598
1749040966235,1726,2499,2605
1749040966245,1715,2466,2634
1749040966255,1686,2451,2629
1749040966265,1665,2502,2622
1749040966275,1633,2533,2590
1749040966285,1573,2511,2581
1749040966295,1627,2474,2557
1749040966305,1561,2476,2480
1749040966315,1585,2447,2536
1749040966325,1602,2400,2431
1749040966335,1595,2393,2451
1749040966345,1590,2397,2441
1749040966355,1541,2425,2393
1749040966365,1562,2403,2323
1749040966375,1513,2320,2260
1749040966385,1563,2291,2224
1749040966395,1531,2342,2262
1749040966405,1638,2277,2178
1749040966415,1640,2268,2128
1749040966425,1599,2269,2100
1749040966435,1700,2180,2006
1749040966445,1666,2194,1980
1749040966455,1701,2174,1952
1749040966465,1752,2054,1938
1749040966475,1806,2082,1907
1749040966485,1839,1999,1853
1749040966495,1833,1959,1736
1749040966505,1851,1995,1712
1749040966515,1875,1985,1728
1749040966525,1920,1949,1640
1749040966535,1990,1891,1663
1749040966545,2018,1890,1592
1749040966555,2049,1835,1536
1749040966565,2047,1835,1568
1749040966575,2103,1780,1500
1749040966585,2147,1752,1478
1749040966595,2203,1746,1498
1749040966605,2264,1713,1475
1749040966615,2221,1693,1471
1749040966625,2286,1700,1463
1749040966635,2295,1636,1503
1749040966645,2312,1678,1457
1749040966655,2355,1636,1478
1749040966665,2390,1575,1563
1749040966675,2418,1600,1515
1749040966685,2417,1596,1560
1749040966695,2530,1624,1618
1749040966705,2475,1633,1562
1749040966715,2506,1580,1678
1749040966725,2492,1593,1702
1749040966735,2490,1559,1743
1749040966745,2546,1597,1713
1749040966755,2554,1643,1809
1749040966765,2538,1587,1804
1749040966775,2585,1649,1876
1749040966785,2573,1702,1913
1749040966795,2552,1678,1968
1749040966805,2524,1657,1993
1749040966815,2506,1711,1999
1749040966825,2506,1766,2098
1749040966835,2473,1740,2142
1749040966845,2465,1816,2147
1749040966855,2442,1780,2181
1749040966865,2402,1794,2230
1749040966875,2333,1909,2278
1749040966885,2397,1910,2319
1749040966895,2295,1883,2330
1749040966905,2317,1992,2368
1749040966915,2275,1998,2403
1749040966925,2236,2023,2510
1749040966935,2134,2018,2473
1749040966945,2139,2040,2474
1749040966955,2090,2109,2509
1749040966965,2096,2122,2595
1749040966975,2034,2158,2621
1749040966985,2026,2184,2602
1749040966995,1964,2194,2603
1749040967005,1893,2239,2612
1749040967015,1846,2272,2635
1749040967025,1851,2353,2568
1749040967035,1811,2308,2623
1749040967045,1826,2344,2604
1749040967055,1781,2365,2539
1749040967065,1731,2437,2561
1749040967075,1655,2445,2530
1749040967085,1657,2437,2510
1749040967095,1634,2484,2503
1749040967105,1605,2501,2429
1749040967115,1629,2493,2371
1749040967125,1556,2484,2329
1749040967135,1541,2470,2363
1749040967145,1529,2483,2283
1749040967155,1518,2488,2217
1749040967165,1567,2515,2169
1749040967175,1571,2520,2163
1749040967185,1539,2466,2135
1749040967195,1501,2478,2120
1749040967205,1506,2527,1986
1749040967215,1604,2428,2006
1749040967225,1550,2463,1900
1749040967235,1541,2495,1887
1749040967245,1632,2468,1813
1749040967255,1582,2418,1816
1749040967265,1607,2388,1822
1749040967275,1720,2352,1691
1749040967285,1745,2375,1687
1749040967295,1743,2366,1643
1749040967305,1742,2255,1587
1749040967315,1793,2227,1657
1749040967325,1808,2256,1577
1749040967335,1829,2247,1539
1749040967345,1846,2200,1555
1749040967355,1887,2113,1557
1749040967365,1937,2117,1495
1749040967375,2047,2091,1496
1749040967385,1997,2095,1518
1749040967395,2047,2011,1535
1749040967405,2069,1957,1491
1749040967415,2141,1961,1489
1749040967425,2210,1991,1560
1749040967435,2171,1944,1485
1749040967445,2275,1933,1524
1749040967455,2325,1899,1574
1749040967465,2364,1802,1630
1749040967475,2306,1771,1573
1749040967485,2411,1820,1593
1749040967495,2379,1737,1648
1749040967505,2390,1769,1683
1749040967515,2419,1739,1740
1749040967525,2514,1688,1800
1749040967535,2482,1675,1846
1749040967545,2510,1681,1836
1749040967555,2529,1661,1877
1749040967565,2531,1637,1971
1749040967575,2531,1588,1985
1749040967585,2529,1584,2056
1749040967595,2560,1625,2043
1749040967605,2578,1570,2128
1749040967615,2503,1614,2215
1749040967625,2553,1583,2177
1749040967635,2486,1648,2237
1749040967645,2470,1633,2270
1749040967655,2488,1622,2382
1749040967665,2489,1575,2384
1749040967675,2483,1658,2399
1749040967685,2431,1594,2489
1749040967695,2371,1706,2501
1749040967705,2387,1652,2518
1749040967715,2356,1713,2543
1749040967725,2328,1714,2564
1749040967735,2280,1781,2543
1749040967745,2233,1770,2559
1749040967755,2218,1738,2543
1749040967765,2246,1855,2604
1749040967775,2143,1825,2631
1749040967785,2082,1859,2590
1749040967795,2127,1940,2607
1749040967805,2078,1923,2545
1749040967815,1974,1966,2555
1749040967825,2012,1980,2546
1749040967835,1901,1975,2550
1749040967845,1908,2091,2487
1749040967855,1882,2093,2487
1749040967865,1868,2136,2459
1749040967875,1750,2148,2417
1749040967885,1767,2146,2378
1749040967895,1730,2211,2405
1749040967905,1683,2177,2365
1749040967915,1680,2253,2272
1749040967925,1638,2307,2212
1749040967935,1670,2310,2169
1749040967945,1605,2311,2121
1749040967955,1575,2324,2133
1749040967965,1575,2399,2046
1749040967975,1550,2415,2025
1749040967985,1581,2429,1995
1749040967995,1586,2403,1946
1749040968005,1547,2474,1868
1749040968015,1553,2491,1862
1749040968025,1570,2476,1832
1749040968035,1540,2489,1815
1749040968045,1575,2503,1749
1749040968055,1534,2534,1649
1749040968065,1616,2531,1677
1749040968075,1568,2447,1597
1749040968085,1600,2505,1631
1749040968095,1659,2481,1609
1749040968105,1637,2484,1522
1749040968115,1650,2507,1521
1749040968125,1753,2506,1566
1749040968135,1729,2506,1558
1749040968145,1791,2472,1455
1749040968155,1776,2423,1471
1749040968165,1848,2388,1472
1749040968175,1921,2344,1456
1749040968185,1889,2364,1553
1749040968195,1953,2339,1487
1749040968205,1967,2368,1499
1749040968215,2039,2309,1543
1749040968225,2101,2318,1561
1749040968235,2139,2218,1608
1749040968245,2124,2244,1569
1749040968255,2125,2156,1629
1749040968265,2193,2167,1700
1749040968275,2261,2111,1661
1749040968285,2236,2093,1717
1749040968295,2356,2100,1737
1749040968305,2329,2066,1784
1749040968315,2394,2045,1888
1749040968325,2374,1924,1942
1749040968335,2454,1943,1943
1749040968345,2432,1874,1962
1749040968355,2488,1931,2021
1749040968365,2523,1858,2131
1749040968375,2492,1840,2158
1749040968385,2509,1820,2196
1749040968395,2559,1784,2244
1749040968405,2554,1791,2303
1749040968415,2524,1761,2317
1749040968425,2513,1726,2373
1749040968435,2595,1723,2341
1749040968445,2572,1702,2376
1749040968455,2573,1618,2426
1749040968465,2526,1672,2463
1749040968475,2559,1653,2502
1749040968485,2471,1581,2532
1749040968495,2479,1648,2544
1749040968505,2488,1630,2557
1749040968515,2409,1647,2608
1749040968525,2401,1594,2632
1749040968535,2391,1621,2637
1749040968545,2353,1641,2547
1749040968555,2376,1569,2638
1749040968565,2356,1563,2580
1749040968575,2228,1614,2545
1749040968585,2218,1599,2619
1749040968595,2176,1643,2573
1749040968605,2144,1657,2573
1749040968615,2120,1710,2553
1749040968625,2126,1655,2523
1749040968635,2109,1702,2434
1749040968645,1994,1743,2420
1749040968655,1964,1756,2391
1749040968665,1983,1757,2397
1749040968675,1931,1859,2315
1749040968685,1900,1867,2265
1749040968695,1790,1885,2282
1749040968705,1846,1924,2191
1749040968715,1748,1942,2200
1749040968725,1768,1972,2150
1749040968735,1714,2011,2060
1749040968745,1662,2018,2040
1749040968755,1701,2001,2002
1749040968765,1628,2076,1943
1749040968775,1619,2100,1896
1749040968785,1621,2108,1809
1749040968795,1537,2134,1824
1749040968805,1573,2214,1803
1749040968815,1522,2243,1775
1749040968825,1564,2273,1692
1749040968835,1526,2246,1670
1749040968845,1570,2274,1617
1749040968855,1515,2286,1572
1749040968865,1543,2393,1578
1749040968875,1605,2410,1552
1749040968885,1531,2405,1565
1749040968895,1555,2431,1526
1749040968905,1545,2434,1480
1749040968915,1597,2496,1550
1749040968925,1648,2493,1464
1749040968935,1621,2449,1531
1749040968945,1703,2453,1461
1749040968955,1733,2443,1529
1749040968965,1696,2538,1552
1749040968975,1723,2493,1562
1749040968985,1812,2530,1534
1749040968995,1792,2481,1575
1749040969005,1868,2520,1556
1749040969015,1927,2441,1667
1749040969025,1976,2453,1607
1749040969035,1949,2514,1648
1749040969045,2023,2480,1747
1749040969055,2074,2467,1737
1749040969065,2126,2433,1751
1749040969075,2090,2428,1837
1749040969085,2141,2372,1836
1749040969095,2165,2378,1927
1749040969105,2247,2356,2004
1749040969115,2308,2308,1973
1749040969125,2272,2257,2045
1749040969135,2322,2236,2143
1749040969145,2384,2231,2137
1749040969155,2391,2167,2169
1749040969165,2420,2195,2176
1749040969175,2424,2139,2244
1749040969185,2431,2093,2262
1749040969195,2488,2107,2347
1749040969205,2521,2021,2345
1749040969215,2495,2012,2464
1749040969225,2548,2042,2459
1749040969235,2491,1950,2434
1749040969245,2563,1966,2488
1749040969255,2597,1945,2533
1749040969265,2559,1846,2517
1749040969275,2568,1900,2558
1749040969285,2526,1780,2584
1749040969295,2526,1790,2562
1749040969305,2477,1750,2601
1749040969315,2532,1699,2592
1749040969325,2532,1739,2567
1749040969335,2500,1698,2553
1749040969345,2442,1707,2556
1749040969355,2391,1700,2556
1749040969365,2457,1662,2570
1749040969375,2414,1687,2580
1749040969385,2356,1579,2483
1749040969395,2357,1585,2530
1749040969405,2338,1587,2445
1749040969415,2225,1620,2402
1749040969425,2248,1595,2392
1749040969435,2192,1645,2326
1749040969445,2147,1558,2315
1749040969455,2114,1569,2301
1749040969465,2098,1570,2212
1749040969475,2026,1596,2247
1749040969485,1983,1622,2186
1749040969495,1920,1597,2079
1749040969505,1911,1616,2028
1749040969515,1844,1659,2043
1749040969525,1832,1683,2022
1749040969535,1840,1706,1965
1749040969545,1805,1730,1856
1749040969555,1739,1707,1869
1749040969565,1755,1802,1788
1749040969575,1715,1741,1767
1749040969585,1633,1808,1752
1749040969595,1599,1824,1654
1749040969605,1674,1848,1700
1749040969615,1571,1856,1666
1749040969625,1574,1923,1641
1749040969635,1622,1990,1617
1749040969645,1556,1975,1579
1749040969655,1571,2040,1582
1749040969665,1545,2075,1505
1749040969675,1565,2052,1481
1749040969685,1499,2069,1500
1749040969695,1540,2125,1457
1749040969705,1595,2206,1511
1749040969715,1550,2212,1495
1749040969725,1529,2223,1485
1749040969735,1583,2299,1507
1749040969745,1649,2243,1496
1749040969755,1646,2317,1532
1749040969765,1614,2380,1579
1749040969775,1677,2404,1628
1749040969785,1679,2375,1615
1749040969795,1745,2417,1683
1749040969805,1765,2465,1691
1749040969815,1805,2430,1682
1749040969825,1830,2433,1758
1749040969835,1902,2454,1831
1749040969845,1886,2520,1838
1749040969855,1926,2530,1846
1749040969865,1934,2534,1892
1749040969875,1988,2448,1957
1749040969885,1985,2516,1989
1749040969895,2110,2460,2011
1749040969905,2091,2463,2061
1749040969915,2137,2513,2132
1749040969925,2195,2481,2184
1749040969935,2200,2460,2277
1749040969945,2295,2513,2291
1749040969955,2291,2460,2265
1749040969965,2352,2408,2387
1749040969975,2316,2421,2352
1749040969985,2382,2446,2453
1749040969995,2420,2409,2478
1749040970005,2423,2359,2480
1749040970015,2469,2387,2527
1749040970025,2507,2296,2485
1749040970035,2492,2297,2590
1749040970045,2520,2245,2596
1749040970055,2478,2243,2594
1749040970065,2565,2195,2585
1749040970075,2576,2147,2592
1749040970085,2498,2145,2569
1749040970095,2525,2076,2604
1749040970105,2503,2127,2579
1749040970115,2497,2074,2608
1749040970125,2571,2052,2569
1749040970135,2518,1973,2553
1749040970145,2469,1962,2513
1749040970155,2454,1985,2475
1749040970165,2480,1943,2485
1749040970175,2471,1852,2479
1749040970185,2399,1857,2400
1749040970195,2410,1837,2353
1749040970205,2380,1773,2405
1749040970215,2346,1761,2364
1749040970225,2286,1748,2234
1749040970235,2302,1691,2263
1749040970245,2235,1713,2148
1749040970255,2211,1684,2141
1749040970265,2151,1660,2113
1749040970275,2209,1675,2071
1749040970285,2173,1602,2018
1749040970295,2130,1602,1932
1749040970305,2024,1638,1933
1749040970315,2036,1641,1900
1749040970325,1990,1647,1842
1749040970335,1889,1645,1840
1749040970345,1893,1635,1740
1749040970355,1884,1620,1722
1749040970365,1818,1608,1728
1749040970375,1815,1556,1684
1749040970385,1760,1582,1586
1749040970395,1710,1658,1579
1749040970405,1698,1641,1564
1749040970415,1654,1632,1560
1749040970425,1677,1664,1576
1749040970435,1654,1653,1480
1749040970445,1628,1701,1513
1749040970455,1561,1709,1516
1749040970465,1555,1737,1464
1749040970475,1567,1756,1492
1749040970485,1543,1746,1551
1749040970495,1601,1864,1507
1749040970505,1507,1819,1544
1749040970515,1569,1828,1513
1749040970525,1543,1883,1579
1749040970535,1602,1930,1552
1749040970545,1569,1971,1627
1749040970555,1596,1980,1639
1749040970565,1583,1974,1615
1749040970575,1566,2089,1665
1749040970585,1592,2053,1720
1749040970595,1595,2155,1748
1749040970605,1618,2139,1749
1749040970615,1678,2128,1835
1749040970625,1683,2239,1901
1749040970635,1750,2209,1905
1749040970645,1765,2240,1918
1749040970655,1834,2252,1972
1749040970665,1809,2322,2102
1749040970675,1871,2339,2053
1749040970685,1932,2358,2155
1749040970695,1928,2336,2209
1749040970705,1963,2434,2239
1749040970715,2054,2447,2259
1749040970725,2067,2459,2318
1749040970735,2138,2446,2332
1749040970745,2086,2430,2351
1749040970755,2186,2499,2420
1749040970765,2193,2464,2458
1749040970775,2261,2526,2480
1749040970785,2261,2472,2496
1749040970795,2310,2540,2522
1749040970805,2324,2514,2544
1749040970815,2347,2535,2521
1749040970825,2440,2475,2581
1749040970835,2408,2502,2596
1749040970845,2460,2458,2625
1749040970855,2501,2430,2570
1749040970865,2445,2434,2624
1749040970875,2522,2415,2612
1749040970885,2493,2470,2555
1749040970895,2514,2408,2563
1749040970905,2497,2362,2560
1749040970915,2515,2413,2519
1749040970925,2586,2300,2474
1749040970935,2498,2280,2504
1749040970945,2494,2278,2476
1749040970955,2559,2285,2418
1749040970965,2548,2270,2411
1749040970975,2539,2244,2400
1749040970985,2474,2133,2308
1749040970995,2478,2140,2244
1749040971005,2454,2073,2194
1749040971015,2461,2098,2235
1749040971025,2475,2040,2105
1749040971035,2433,2033,2133
1749040971045,2331,2023,2020
1749040971055,2300,1954,2050
1749040971065,2268,1898,1952
1749040971075,2295,1940,1892
1749040971085,2238,1897,1899
1749040971095,2230,1874,1881
1749040971105,2195,1816,1822
1749040971115,2104,1748,1768
1749040971125,2146,1759,1676
1749040971135,2092,1786,1644
1749040971145,1990,1760,1642
1749040971155,2028,1750,1607
1749040971165,1994,1685,1597
1749040971175,1885,1714,1554
1749040971185,1845,1623,1576
1749040971195,1796,1657,1495
1749040971205,1770,1597,1529
1749040971215,1771,1634,1525
1749040971225,1714,1611,1549
1749040971235,1715,1561,1464
1749040971245,1677,1647,1463
1749040971255,1693,1579,1506
1749040971265,1639,1624,1549
1749040971275,1604,1603,1561
1749040971285,1605,1575,1488
1749040971295,1611,1642,1590
1749040971305,1599,1622,1560
1749040971315,1516,1596,1631
1749040971325,1577,1688,1639
1749040971335,1565,1693,1640
1749040971345,1584,1632,1667
1749040971355,1592,1743,1736
1749040971365,1588,1674,1723
1749040971375,1557,1726,1848
1749040971385,1532,1727,1829
1749040971395,1600,1812,1861
1749040971405,1603,1770,1971
1749040971415,1630,1806,1986
1749040971425,1618,1856,2004
1749040971435,1655,1880,2057
1749040971445,1648,1966,2057
1749040971455,1658,1916,2182
1749040971465,1765,2015,2222
1749040971475,1758,1989,2201
1749040971485,1804,2014,2310
1749040971495,1804,2040,2332
1749040971505,1867,2101,2404
1749040971515,1903,2169,2417
1749040971525,1935,2153,2471
1749040971535,2003,2192,2411
1749040971545,2007,2280,2461
