timestamp_ms_device,ppg_finger1,ppg_finger2,ppg_finger3
1798274,1866,1854,1813
1798284,1872,1856,1822
1798294,1876,1859,1821
1798304,1881,1856,1823
1798314,1889,1865,1824
1798324,1893,1866,1827
1798334,1898,1870,1825
1798344,1903,1872,1831
1798354,1906,1872,1831
1798364,1907,1872,1833
1798374,1909,1872,1833
1798384,1910,1872,1836
1798394,1910,1877,1840
1798404,1910,1881,1839
1798414,1911,1879,1840
1798424,1909,1877,1846
1798434,1909,1879,1843
1798444,1907,1879,1845
1798454,1907,1878,1850
1798464,1904,1875,1849
1798474,1904,1874,1847
1798484,1902,1872,1847
1798494,1902,1872,1850
1798504,1898,1871,1850
1798514,1892,1869,1847
1798524,1885,1870,1842
1798534,1883,1866,1841
1798544,1882,1863,1840
1798554,1872,1859,1840
1798564,1872,1861,1835
1798574,1870,1858,1831
1798584,1869,1857,1833
1798594,1865,1857,1827
1798604,1862,1857,1831
1798614,1862,1856,1830
1798624,1861,1855,1830
1798634,1861,1856,1835
1798644,1859,1856,1835
1798654,1861,1856,1837
1798664,1861,1857,1837
1798674,1861,1856,1840
1798684,1861,1856,1840
1798694,1861,1855,1841
1798704,1863,1858,1843
1798714,1861,1855,1842
1798724,1863,1855,1846
1798734,1861,1856,1845
1798744,1862,1856,1846
1798754,1865,1855,1844
1798764,1863,1855,1846
1798774,1862,1856,1847
1798784,1861,1854,1847
1798794,1857,1856,1847
1798804,1859,1855,1850
1798814,1858,1852,1847
1798824,1858,1853,1851
1798834,1856,1855,1845
1798844,1857,1853,1845
1798854,1857,1853,1851
1798864,1856,1854,1847
1798874,1856,1854,1848
1798884,1856,1854,1847
1798894,1855,1853,1847
1798904,1856,1853,1846
1798914,1857,1853,1846
1798924,1856,1853,1846
1798934,1857,1853,1849
1798944,1855,1851,1849
1798954,1857,1853,1845
1798964,1856,1851,1845
1798974,1854,1850,1851
1798984,1859,1851,1847
1798994,1856,1849,1849
1799004,1856,1850,1850
1799014,1857,1851,1851
1799024,1855,1848,1850
1799034,1855,1851,1851
1799044,1855,1849,1851
1799054,1854,1848,1851
1799064,1856,1851,1850
1799074,1852,1851,1851
1799084,1851,1849,1854
1799094,1854,1851,1853
1799104,1855,1850,1854
1799114,1856,1851,1853
1799124,1860,1855,1855
1799134,1866,1856,1856
1799144,1871,1856,1857
1799154,1873,1861,1859
1799164,1872,1862,1859
1799174,1879,1865,1861
1799184,1884,1869,1861
1799194,1887,1872,1867
1799204,1889,1872,1867
1799214,1892,1878,1871
1799224,1894,1875,1872
1799234,1891,1875,1869
1799244,1890,1878,1870
1799254,1891,1879,1871
1799264,1890,1878,1869
1799274,1890,1876,1872
1799284,1887,1877,1872
1799294,1886,1872,1872
1799304,1884,1872,1870
1799314,1884,1872,1872
1799324,1883,1866,1872
1799334,1883,1863,1869
1799344,1881,1864,1870
1799354,1876,1859,1869
1799364,1874,1857,1867
1799374,1872,1853,1862
1799384,1872,1853,1862
1799394,1867,1846,1861
1799404,1867,1845,1860
1799414,1866,1843,1862
1799424,1865,1831,1861
1799434,1862,1841,1862
1799444,1861,1840,1859
1799454,1857,1846,1862
1799464,1857,1842,1861
1799474,1860,1845,1859
1799484,1859,1847,1861
1799494,1862,1845,1861
1799504,1862,1846,1859
1799514,1861,1850,1859
1799524,1860,1849,1859
1799534,1858,1852,1854
1799544,1861,1847,1862
1799554,1860,1851,1862
1799564,1861,1855,1867
1799574,1858,1851,1863
1799584,1860,1850,1861
1799594,1858,1853,1861
1799604,1859,1851,1863
1799614,1857,1851,1859
1799624,1861,1853,1863
1799634,1860,1851,1863
1799644,1862,1850,1863
1799654,1859,1851,1863
1799664,1861,1851,1861
1799674,1858,1851,1860
1799684,1859,1850,1863
1799694,1857,1847,1863
1799704,1856,1847,1861
1799714,1857,1849,1861
1799724,1855,1847,1858
1799734,1853,1847,1859
1799744,1853,1847,1857
1799754,1852,1847,1859
1799764,1853,1847,1859
1799774,1854,1851,1861
1799784,1851,1847,1858
1799794,1847,1845,1858
1799804,1851,1851,1857
1799814,1850,1848,1855
1799824,1854,1846,1858
1799834,1848,1849,1857
1799844,1846,1846,1856
1799854,1853,1849,1856
1799864,1847,1850,1855
1799874,1850,1849,1855
1799884,1842,1847,1856
1799894,1851,1850,1856
1799904,1851,1845,1856
1799914,1855,1851,1855
1799924,1855,1851,1854
1799934,1854,1849,1856
1799944,1856,1851,1856
1799954,1855,1850,1857
1799964,1857,1847,1854
1799974,1856,1850,1853
1799984,1860,1847,1854
1799994,1867,1850,1855
1800004,1865,1851,1856
1800014,1867,1853,1857
1800024,1871,1852,1860
1800034,1873,1853,1858
1800044,1878,1856,1865
1800054,1888,1856,1863
1800064,1890,1858,1866
1800074,1897,1866,1872
1800084,1901,1869,1872
1800094,1905,1872,1872
1800104,1906,1872,1872
1800114,1911,1873,1874
1800124,1908,1874,1878
1800134,1911,1877,1878
1800144,1909,1882,1879
1800154,1907,1879,1882
1800164,1904,1885,1883
1800174,1904,1883,1883
1800184,1903,1885,1884
1800194,1901,1883,1883
1800204,1895,1885,1887
1800214,1893,1878,1884
1800224,1887,1881,1884
1800234,1883,1881,1885
1800244,1881,1875,1883
1800254,1876,1877,1879
1800264,1872,1873,1878
1800274,1869,1872,1882
1800284,1867,1871,1876
1800294,1865,1866,1877
1800304,1860,1866,1875
1800314,1859,1868,1875
1800324,1860,1865,1873
1800334,1858,1862,1872
1800344,1856,1859,1872
1800354,1855,1856,1872
1800364,1856,1858,1871
1800374,1856,1861,1871
1800384,1854,1857,1869
1800394,1853,1857,1869
1800404,1847,1858,1871
1800414,1846,1859,1866
1800424,1840,1856,1866
1800434,1838,1859,1863
1800444,1830,1859,1863
1800454,1821,1858,1865
1800464,1823,1858,1863
1800474,1813,1856,1861
1800484,1812,1856,1859
1800494,1810,1859,1861
1800504,1813,1857,1859
1800514,1816,1855,1857
1800524,1819,1856,1862
1800534,1823,1855,1861
1800544,1829,1856,1859
1800554,1837,1853,1861
1800564,1839,1854,1859
1800574,1845,1853,1865
1800584,1850,1851,1861
1800594,1856,1850,1861
1800604,1858,1853,1858
1800614,1866,1853,1860
1800624,1862,1848,1856
1800634,1866,1850,1859
1800644,1872,1849,1859
1800654,1865,1849,1857
1800664,1868,1850,1857
1800674,1867,1849,1857
1800684,1866,1847,1857
1800694,1863,1853,1857
1800704,1867,1851,1856
1800714,1869,1853,1857
1800724,1862,1851,1856
1800734,1862,1853,1855
1800744,1860,1853,1854
1800754,1861,1852,1854
1800764,1863,1851,1854
1800774,1863,1853,1853
1800784,1862,1854,1851
1800794,1858,1855,1852
1800804,1861,1854,1849
1800814,1862,1856,1850
1800824,1862,1854,1851
1800834,1861,1854,1851
1800844,1861,1856,1851
1800854,1861,1856,1849
1800864,1861,1852,1850
1800874,1862,1855,1850
1800884,1859,1855,1854
1800894,1860,1853,1851
1800904,1861,1854,1852
1800914,1861,1853,1850
1800924,1861,1853,1854
1800934,1862,1850,1854
1800944,1862,1849,1855
1800954,1865,1853,1854
1800964,1869,1851,1857
1800974,1872,1857,1857
1800984,1874,1854,1862
1800994,1878,1859,1865
1801004,1882,1863,1867
1801014,1887,1862,1871
1801024,1894,1868,1872
1801034,1898,1871,1873
1801044,1901,1873,1877
1801054,1903,1875,1876
1801064,1904,1879,1882
1801074,1903,1879,1883
1801084,1903,1882,1883
1801094,1903,1885,1886
1801104,1899,1883,1886
1801114,1902,1886,1886
1801124,1897,1881,1887
1801134,1895,1883,1889
1801144,1894,1881,1889
1801154,1889,1881,1890
1801164,1886,1882,1889
1801174,1881,1878,1888
1801184,1881,1877,1890
1801194,1875,1874,1889
1801204,1874,1872,1884
1801214,1872,1872,1882
1801224,1871,1872,1883
1801234,1867,1868,1878
1801244,1863,1867,1881
1801254,1861,1863,1877
1801264,1860,1863,1873
1801274,1857,1862,1874
1801284,1858,1859,1872
1801294,1861,1860,1872
1801304,1857,1858,1872
1801314,1862,1858,1871
1801324,1859,1856,1870
1801334,1862,1857,1871
1801344,1860,1857,1869
1801354,1865,1859,1866
1801364,1861,1857,1868
1801374,1865,1858,1866
1801384,1866,1857,1866
1801394,1868,1856,1865
1801404,1866,1857,1863
1801414,1868,1857,1862
1801424,1863,1859,1863
1801434,1863,1856,1862
1801444,1866,1859,1861
1801454,1862,1859,1858
1801464,1858,1858,1857
1801474,1866,1857,1857
1801484,1861,1858,1856
1801494,1861,1859,1856
1801504,1862,1856,1856
1801514,1861,1856,1851
1801524,1861,1857,1854
1801534,1862,1855,1853
1801544,1859,1859,1851
1801554,1861,1856,1852
1801564,1861,1856,1849
1801574,1861,1857,1851
1801584,1859,1856,1847
1801594,1860,1857,1847
1801604,1858,1856,1850
1801614,1859,1856,1847
1801624,1859,1855,1849
1801634,1861,1855,1850
1801644,1861,1854,1846
1801654,1861,1854,1849
1801664,1863,1851,1850
1801674,1863,1854,1847
1801684,1863,1853,1849
1801694,1863,1853,1850
1801704,1861,1854,1847
1801714,1861,1854,1850
1801724,1861,1851,1851
1801734,1859,1853,1851
1801744,1863,1852,1850
1801754,1862,1855,1850
1801764,1866,1854,1850
1801774,1868,1855,1853
1801784,1870,1857,1852
1801794,1872,1859,1853
1801804,1875,1860,1858
1801814,1882,1863,1863
1801824,1887,1867,1863
1801834,1893,1872,1871
1801844,1901,1874,1872
1801854,1899,1877,1874
1801864,1904,1883,1876
1801874,1904,1883,1880
1801884,1904,1885,1879
1801894,1904,1887,1881
1801904,1904,1888,1885
1801914,1902,1891,1886
1801924,1901,1888,1886
1801934,1899,1888,1888
1801944,1895,1886,1889
1801954,1895,1888,1890
1801964,1891,1883,1890
1801974,1890,1885,1889
1801984,1887,1882,1891
1801994,1886,1878,1887
1802004,1881,1877,1887
1802014,1877,1873,1885
1802024,1875,1872,1879
1802034,1872,1871,1878
1802044,1870,1870,1874
1802054,1865,1866,1874
1802064,1862,1865,1871
1802074,1863,1861,1869
1802084,1861,1859,1868
1802094,1859,1857,1865
1802104,1858,1857,1858
1802114,1857,1857,1857
1802124,1861,1857,1859
1802134,1862,1856,1856
1802144,1863,1857,1857
1802154,1866,1856,1856
1802164,1861,1855,1856
1802174,1863,1856,1856
1802184,1866,1853,1857
1802194,1867,1856,1856
1802204,1869,1855,1855
1802214,1867,1855,1857
1802224,1862,1856,1854
1802234,1867,1857,1855
1802244,1861,1856,1854
1802254,1861,1856,1855
1802264,1863,1855,1854
1802274,1861,1854,1856
1802284,1859,1853,1856
1802294,1858,1855,1853
1802304,1859,1853,1853
1802314,1859,1853,1854
1802324,1861,1853,1855
1802334,1858,1856,1854
1802344,1859,1852,1851
1802354,1858,1853,1853
1802364,1858,1854,1851
1802374,1861,1851,1853
1802384,1859,1853,1853
1802394,1857,1853,1852
1802404,1858,1851,1851
1802414,1859,1850,1851
1802424,1859,1852,1853
1802434,1858,1852,1853
1802444,1861,1852,1851
1802454,1862,1850,1853
1802464,1859,1851,1850
1802474,1859,1849,1852
1802484,1858,1850,1852
1802494,1858,1853,1853
1802504,1856,1851,1856
1802514,1859,1851,1855
1802524,1859,1850,1853
1802534,1859,1846,1854
1802544,1856,1849,1856
1802554,1859,1846,1855
1802564,1859,1850,1854
1802574,1858,1849,1854
1802584,1857,1850,1856
1802594,1859,1850,1856
1802604,1861,1851,1857
1802614,1858,1858,1855
1802624,1859,1851,1856
1802634,1858,1851,1856
1802644,1866,1849,1857
1802654,1867,1849,1857
1802664,1867,1856,1863
1802674,1871,1856,1861
1802684,1873,1861,1862
1802694,1881,1866,1869
1802704,1889,1868,1872
1802714,1892,1872,1872
1802724,1900,1873,1873
1802734,1903,1878,1882
1802744,1904,1887,1884
1802754,1907,1894,1888
1802764,1907,1889,1891
1802774,1907,1890,1895
1802784,1906,1891,1901
1802794,1909,1888,1899
1802804,1905,1890,1900
1802814,1904,1890,1904
1802824,1901,1890,1904
1802834,1897,1887,1903
1802844,1894,1888,1904
1802854,1896,1887,1903
1802864,1893,1884,1904
1802874,1886,1881,1904
1802884,1886,1879,1902
1802894,1879,1874,1901
1802904,1879,1874,1898
1802914,1873,1871,1895
1802924,1872,1870,1894
1802934,1867,1867,1892
1802944,1863,1865,1889
1802954,1861,1862,1888
1802964,1859,1856,1883
1802974,1857,1858,1878
1802984,1856,1856,1875
1802994,1856,1853,1877
1803004,1856,1854,1875
1803014,1856,1853,1872
1803024,1857,1854,1871
1803034,1858,1853,1870
1803044,1857,1851,1862
1803054,1858,1852,1865
1803064,1858,1851,1866
1803074,1860,1851,1862
1803084,1857,1853,1861
1803094,1858,1853,1865
1803104,1861,1850,1862
1803114,1859,1853,1861
1803124,1861,1852,1860
1803134,1860,1853,1861
1803144,1861,1851,1857
1803154,1861,1852,1857
1803164,1856,1851,1857
1803174,1859,1853,1856
1803184,1858,1854,1858
1803194,1860,1851,1858
1803204,1857,1846,1857
1803214,1863,1846,1858
1803224,1857,1850,1856
1803234,1857,1847,1856
1803244,1858,1850,1856
1803254,1856,1847,1855
1803264,1856,1849,1857
1803274,1857,1854,1859
1803284,1856,1847,1856
1803294,1856,1846,1856
1803304,1855,1847,1857
1803314,1857,1847,1857
1803324,1854,1849,1855
1803334,1857,1849,1855
1803344,1857,1847,1858
1803354,1856,1849,1855
1803364,1857,1847,1856
1803374,1857,1849,1856
1803384,1858,1850,1856
1803394,1859,1850,1855
1803404,1859,1851,1854
1803414,1857,1849,1855
1803424,1859,1852,1853
1803434,1857,1852,1854
1803444,1861,1850,1854
1803454,1861,1850,1853
1803464,1860,1851,1853
1803474,1859,1851,1855
1803484,1859,1850,1851
1803494,1859,1851,1854
1803504,1857,1849,1854
1803514,1857,1851,1854
1803524,1859,1846,1851
1803534,1858,1850,1854
1803544,1859,1851,1853
1803554,1862,1853,1854
1803564,1866,1851,1855
1803574,1869,1852,1857
1803584,1870,1858,1857
1803594,1877,1859,1861
1803604,1882,1863,1867
1803614,1890,1871,1872
1803624,1893,1872,1872
1803634,1897,1875,1878
1803644,1904,1879,1883
1803654,1904,1884,1889
1803664,1904,1887,1891
1803674,1905,1891,1895
1803684,1904,1891,1898
1803694,1904,1891,1899
1803704,1904,1888,1899
1803714,1903,1890,1899
1803724,1902,1888,1897
1803734,1902,1888,1903
1803744,1893,1887,1898
1803754,1892,1882,1898
1803764,1890,1879,1897
1803774,1886,1879,1894
1803784,1882,1878,1894
1803794,1878,1873,1889
1803804,1877,1872,1886
1803814,1872,1870,1883
1803824,1871,1869,1878
1803834,1870,1863,1877
1803844,1865,1858,1874
1803854,1865,1858,1872
1803864,1860,1859,1868
1803874,1859,1854,1866
1803884,1860,1855,1865
1803894,1859,1853,1862
1803904,1857,1851,1857
1803914,1858,1853,1859
1803924,1861,1854,1858
1803934,1859,1856,1857
1803944,1862,1853,1855
1803954,1861,1854,1855
1803964,1863,1854,1854
1803974,1866,1854,1856
1803984,1867,1857,1855
1803994,1866,1851,1853
1804004,1865,1855,1854
1804014,1862,1851,1856
1804024,1861,1856,1853
1804034,1859,1853,1852
1804044,1865,1856,1855
1804054,1863,1854,1856
1804064,1862,1853,1854
1804074,1861,1853,1853
1804084,1861,1853,1854
1804094,1859,1851,1855
1804104,1859,1851,1855
1804114,1860,1851,1855
1804124,1860,1849,1855
1804134,1860,1851,1853
1804144,1862,1850,1853
1804154,1859,1851,1851
1804164,1858,1851,1849
1804174,1858,1852,1853
1804184,1859,1850,1854
1804194,1865,1852,1850
1804204,1862,1847,1854
1804214,1860,1853,1851
1804224,1861,1853,1853
1804234,1865,1852,1853
1804244,1860,1850,1852
1804254,1862,1852,1850
1804264,1862,1850,1851
1804274,1863,1853,1849
1804284,1862,1853,1851
1804294,1861,1852,1854
1804304,1861,1851,1853
1804314,1861,1850,1846
1804324,1861,1851,1849
1804334,1858,1849,1851
1804344,1861,1847,1850
1804354,1859,1853,1851
1804364,1863,1850,1851
1804374,1867,1851,1851
1804384,1870,1855,1856
1804394,1872,1857,1856
1804404,1874,1860,1862
1804414,1881,1866,1867
1804424,1888,1871,1871
1804434,1891,1872,1872
1804444,1894,1876,1877
1804454,1902,1882,1879
1804464,1903,1887,1883
1804474,1905,1889,1888
1804484,1905,1890,1891
1804494,1905,1890,1889
1804504,1905,1894,1897
1804514,1904,1891,1897
1804524,1904,1891,1898
1804534,1903,1888,1894
1804544,1902,1887,1893
1804554,1899,1885,1891
1804564,1899,1883,1895
1804574,1895,1881,1895
1804584,1889,1878,1894
1804594,1887,1874,1891
1804604,1886,1872,1889
1804614,1878,1870,1886
1804624,1877,1868,1879
1804634,1874,1866,1879
1804644,1871,1861,1874
1804654,1863,1856,1871
1804664,1859,1853,1870
1804674,1856,1850,1861
1804684,1856,1851,1859
1804694,1856,1850,1856
1804704,1853,1849,1854
1804714,1855,1848,1851
1804724,1854,1851,1846
1804734,1854,1851,1842
1804744,1855,1846,1841
1804754,1855,1849,1842
1804764,1855,1854,1842
1804774,1855,1853,1840
1804784,1855,1853,1840
1804794,1856,1854,1840
1804804,1858,1850,1840
1804814,1856,1854,1844
1804824,1855,1855,1841
1804834,1858,1853,1843
1804844,1859,1849,1843
1804854,1857,1851,1847
1804864,1868,1847,1849
1804874,1860,1847,1847
1804884,1861,1847,1849
1804894,1859,1845,1856
1804904,1859,1846,1855
1804914,1862,1850,1853
1804924,1859,1850,1853
1804934,1859,1851,1857
1804944,1862,1847,1852
1804954,1861,1851,1853
1804964,1858,1847,1853
1804974,1853,1847,1850
1804984,1859,1854,1846
1804994,1859,1850,1851
1805004,1857,1850,1845
1805014,1857,1847,1845
1805024,1853,1855,1843
1805034,1856,1847,1843
1805044,1855,1849,1843
1805054,1854,1847,1844
1805064,1857,1852,1842
1805074,1858,1850,1845
1805084,1859,1848,1846
1805094,1858,1847,1847
1805104,1862,1850,1847
1805114,1861,1851,1850
1805124,1862,1847,1850
1805134,1862,1849,1851
1805144,1865,1851,1851
1805154,1863,1851,1849
1805164,1865,1851,1851
1805174,1863,1854,1851
1805184,1862,1853,1849
1805194,1859,1853,1847
1805204,1862,1855,1840
1805214,1860,1855,1840
1805224,1859,1854,1840
1805234,1861,1853,1837
1805244,1858,1855,1838
1805254,1859,1853,1840
1805264,1855,1853,1838
1805274,1856,1851,1840
1805284,1856,1851,1839
1805294,1859,1853,1840
1805304,1861,1850,1841
1805314,1863,1851,1845
1805324,1866,1853,1852
1805334,1872,1855,1855
1805344,1877,1858,1861
1805354,1887,1863,1868
1805364,1894,1866,1873
1805374,1900,1872,1881
1805384,1906,1874,1887
1805394,1907,1876,1892
1805404,1909,1882,1897
1805414,1914,1887,1901
1805424,1915,1893,1904
1805434,1911,1895,1904
1805444,1909,1895,1904
1805454,1910,1897,1904
1805464,1905,1893,1899
1805474,1904,1894,1895
1805484,1904,1889,1899
1805494,1899,1890,1895
1805504,1898,1885,1890
1805514,1893,1881,1894
1805524,1894,1883,1893
1805534,1889,1876,1890
1805544,1890,1875,1893
1805554,1886,1872,1891
1805564,1882,1871,1889
1805574,1882,1865,1890
1805584,1875,1863,1886
1805594,1874,1859,1884
1805604,1872,1858,1879
1805614,1871,1854,1875
1805624,1870,1851,1872
1805634,1865,1849,1866
1805644,1861,1850,1863
1805654,1862,1849,1859
1805664,1859,1850,1859
1805674,1860,1850,1856
1805684,1860,1846,1854
1805694,1857,1847,1853
1805704,1857,1851,1851
1805714,1857,1847,1852
1805724,1859,1850,1849
1805734,1856,1851,1847
1805744,1856,1850,1849
1805754,1859,1851,1847
1805764,1862,1851,1849
1805774,1863,1850,1850
1805784,1861,1847,1847
1805794,1862,1847,1855
1805804,1860,1845,1851
1805814,1861,1849,1845
1805824,1859,1855,1850
1805834,1861,1847,1849
1805844,1861,1846,1847
1805854,1859,1845,1853
1805864,1859,1846,1849
1805874,1862,1846,1851
1805884,1856,1846,1847
1805894,1859,1847,1853
1805904,1859,1846,1849
1805914,1857,1845,1846
1805924,1856,1851,1844
1805934,1854,1846,1845
1805944,1854,1847,1847
1805954,1856,1847,1842
1805964,1853,1845,1847
1805974,1858,1847,1843
1805984,1856,1844,1841
1805994,1857,1846,1840
1806004,1856,1843,1847
1806014,1858,1845,1845
1806024,1856,1851,1843
1806034,1856,1845,1847
1806044,1857,1847,1846
1806054,1856,1845,1847
1806064,1856,1842,1845
1806074,1857,1846,1847
1806084,1854,1847,1845
1806094,1853,1847,1850
1806104,1856,1847,1845
1806114,1854,1847,1846
1806124,1856,1846,1850
1806134,1855,1849,1846
1806144,1856,1849,1847
1806154,1855,1846,1847
1806164,1856,1849,1845
1806174,1857,1846,1847
1806184,1857,1847,1846
1806194,1857,1846,1850
1806204,1856,1845,1847
1806214,1856,1847,1847
1806224,1860,1847,1846
1806234,1862,1846,1849
1806244,1863,1847,1853
1806254,1866,1850,1853
1806264,1872,1856,1857
1806274,1874,1856,1857
1806284,1879,1859,1862
1806294,1887,1866,1866
1806304,1894,1870,1871
1806314,1902,1872,1872
1806324,1904,1879,1879
1806334,1906,1883,1883
1806344,1906,1889,1887
1806354,1906,1889,1890
1806364,1913,1893,1893
1806374,1909,1893,1895
1806384,1907,1892,1896
1806394,1904,1895,1893
1806404,1902,1893,1895
1806414,1903,1889,1894
1806424,1901,1887,1890
1806434,1895,1889,1891
1806444,1890,1886,1889
1806454,1889,1880,1885
1806464,1882,1876,1883
1806474,1877,1873,1882
1806484,1872,1873,1875
1806494,1871,1869,1871
1806504,1863,1867,1872
1806514,1862,1865,1867
1806524,1858,1859,1865
1806534,1858,1856,1857
1806544,1856,1855,1857
1806554,1856,1854,1856
1806564,1850,1850,1855
1806574,1855,1850,1849
1806584,1856,1847,1855
1806594,1858,1845,1855
1806604,1859,1846,1853
1806614,1859,1847,1855
1806624,1859,1856,1857
1806634,1863,1845,1856
1806644,1865,1845,1856
1806654,1866,1849,1859
1806664,1865,1850,1859
1806674,1866,1847,1859
1806684,1867,1850,1859
1806694,1866,1850,1859
1806704,1862,1850,1858
1806714,1859,1850,1856
1806724,1862,1850,1856
1806734,1858,1851,1853
1806744,1858,1846,1852
1806754,1856,1850,1847
1806764,1857,1851,1846
1806774,1856,1850,1840
1806784,1855,1849,1840
1806794,1857,1849,1843
1806804,1856,1846,1841
1806814,1855,1846,1840
1806824,1858,1848,1840
1806834,1855,1847,1840
1806844,1855,1846,1840
1806854,1856,1851,1840
1806864,1858,1847,1840
1806874,1858,1847,1841
1806884,1860,1851,1840
1806894,1857,1847,1840
1806904,1858,1847,1842
1806914,1859,1847,1842
1806924,1861,1845,1845
1806934,1859,1847,1843
1806944,1857,1847,1845
1806954,1861,1851,1844
1806964,1859,1847,1849
1806974,1858,1846,1849
1806984,1859,1849,1845
1806994,1858,1850,1847
1807004,1858,1849,1849
1807014,1857,1850,1851
1807024,1862,1850,1850
1807034,1859,1846,1851
1807044,1856,1847,1851
1807054,1858,1853,1847
1807064,1858,1849,1851
1807074,1858,1847,1855
1807084,1861,1851,1854
1807094,1867,1853,1857
1807104,1872,1855,1856
1807114,1873,1858,1861
1807124,1884,1864,1863
1807134,1887,1872,1868
1807144,1894,1872,1872
1807154,1901,1875,1872
1807164,1904,1881,1881
1807174,1904,1885,1881
1807184,1909,1889,1887
1807194,1908,1891,1889
1807204,1907,1893,1891
1807214,1907,1891,1897
1807224,1907,1893,1897
1807234,1904,1892,1897
1807244,1904,1890,1899
1807254,1902,1890,1899
1807264,1898,1890,1897
1807274,1895,1885,1895
1807284,1890,1885,1893
1807294,1891,1883,1892
1807304,1885,1875,1891
1807314,1883,1875,1887
1807324,1879,1872,1888
1807334,1876,1872,1883
1807344,1872,1870,1878
1807354,1870,1867,1874
1807364,1869,1866,1872
1807374,1865,1860,1869
1807384,1867,1858,1862
1807394,1861,1853,1865
1807404,1860,1852,1857
1807414,1854,1850,1856
1807424,1856,1849,1855
1807434,1858,1849,1855
1807444,1857,1849,1850
1807454,1856,1847,1852
1807464,1859,1850,1850
1807474,1862,1850,1850
1807484,1859,1847,1853
1807494,1859,1851,1856
1807504,1863,1847,1854
1807514,1863,1849,1853
1807524,1863,1853,1855
1807534,1859,1850,1855
1807544,1859,1853,1851
1807554,1859,1853,1857
1807564,1859,1853,1855
1807574,1862,1853,1854
1807584,1860,1850,1851
1807594,1862,1847,1853
1807604,1859,1847,1850
1807614,1856,1850,1850
1807624,1855,1850,1852
1807634,1856,1852,1851
1807644,1856,1845,1849
1807654,1856,1851,1847
1807664,1856,1849,1847
1807674,1854,1851,1853
1807684,1859,1846,1849
1807694,1857,1847,1847
1807704,1856,1845,1849
1807714,1859,1845,1847
1807724,1859,1846,1850
1807734,1857,1846,1849
1807744,1857,1847,1851
1807754,1856,1844,1845
1807764,1857,1849,1845
1807774,1856,1845,1849
1807784,1857,1847,1847
1807794,1856,1847,1846
1807804,1857,1846,1847
1807814,1859,1845,1847
1807824,1859,1847,1846
1807834,1857,1847,1849
1807844,1857,1847,1846
1807854,1859,1844,1846
1807864,1858,1845,1845
1807874,1862,1845,1845
1807884,1858,1845,1846
1807894,1861,1845,1844
1807904,1859,1843,1845
1807914,1863,1846,1845
1807924,1862,1847,1842
1807934,1863,1845,1845
1807944,1862,1843,1844
1807954,1861,1847,1840
1807964,1863,1849,1846
1807974,1861,1847,1847
1807984,1859,1843,1847
1807994,1863,1850,1845
1808004,1863,1849,1843
1808014,1863,1847,1846
1808024,1861,1846,1846
1808034,1866,1846,1847
1808044,1865,1851,1850
1808054,1872,1856,1851
1808064,1874,1858,1856
1808074,1881,1861,1859
1808084,1888,1869,1863
1808094,1899,1875,1870
1808104,1902,1874,1872
1808114,1907,1881,1874
1808124,1909,1888,1879
1808134,1913,1889,1881
1808144,1915,1892,1888
1808154,1918,1894,1889
1808164,1915,1895,1893
1808174,1917,1899,1891
1808184,1913,1901,1897
1808194,1909,1893,1899
1808204,1906,1893,1898
1808214,1904,1893,1902
1808224,1901,1889,1898
1808234,1895,1887,1897
1808244,1890,1885,1893
1808254,1887,1882,1892
1808264,1885,1878,1892
1808274,1881,1875,1889
1808284,1877,1872,1885
1808294,1872,1872,1885
1808304,1869,1869,1878
1808314,1860,1864,1876
1808324,1856,1861,1871
1808334,1853,1857,1870
1808344,1854,1856,1869
1808354,1850,1855,1862
1808364,1847,1851,1859
1808374,1847,1847,1855
1808384,1847,1847,1858
1808394,1850,1849,1854
1808404,1851,1850,1853
1808414,1855,1849,1853
1808424,1856,1847,1851
1808434,1856,1845,1849
1808444,1858,1850,1854
1808454,1856,1849,1850
1808464,1861,1850,1852
1808474,1858,1851,1850
1808484,1858,1851,1850
1808494,1859,1847,1853
1808504,1859,1850,1851
1808514,1858,1846,1851
1808524,1860,1848,1849
1808534,1858,1847,1853
1808544,1860,1851,1850
1808554,1856,1851,1851
1808564,1860,1847,1847
1808574,1857,1849,1852
1808584,1859,1849,1851
1808594,1858,1849,1851
1808604,1857,1846,1847
1808614,1856,1845,1851
1808624,1856,1847,1851
1808634,1856,1847,1847
1808644,1856,1847,1847
1808654,1856,1845,1850
1808664,1857,1845,1849
1808674,1858,1847,1847
1808684,1858,1847,1847
1808694,1857,1847,1851
1808704,1856,1844,1851
1808714,1857,1847,1851
1808724,1856,1846,1849
1808734,1857,1849,1849
1808744,1855,1843,1849
1808754,1857,1849,1847
1808764,1855,1845,1850
1808774,1854,1847,1846
1808784,1856,1849,1849
1808794,1854,1849,1845
1808804,1858,1847,1843
1808814,1856,1849,1845
1808824,1855,1846,1847
1808834,1855,1847,1846
1808844,1856,1850,1845
1808854,1855,1847,1849
1808864,1856,1845,1845
1808874,1857,1851,1847
1808884,1858,1847,1845
1808894,1856,1846,1847
1808904,1857,1847,1845
1808914,1862,1845,1850
1808924,1858,1845,1847
1808934,1856,1843,1845
1808944,1858,1847,1843
1808954,1858,1845,1845
1808964,1857,1847,1848
1808974,1860,1849,1847
1808984,1863,1850,1846
1808994,1865,1851,1846
1809004,1870,1855,1853
1809014,1874,1861,1855
1809024,1876,1857,1859
1809034,1885,1869,1863
1809044,1894,1872,1870
1809054,1894,1875,1872
1809064,1904,1875,1879
1809074,1904,1881,1885
1809084,1904,1888,1881
1809094,1907,1893,1892
1809104,1905,1895,1894
1809114,1905,1898,1889
1809124,1906,1897,1898
1809134,1904,1894,1897
1809144,1903,1898,1895
1809154,1899,1893,1898
1809164,1897,1893,1897
1809174,1893,1891,1890
1809184,1891,1888,1887
1809194,1887,1885,1888
1809204,1883,1881,1883
1809214,1877,1877,1879
1809224,1875,1874,1878
1809234,1873,1873,1873
1809244,1872,1871,1872
1809254,1868,1864,1869
1809264,1865,1866,1866
1809274,1863,1858,1861
1809284,1863,1858,1858
1809294,1862,1857,1857
1809304,1860,1855,1858
1809314,1859,1854,1855
1809324,1858,1852,1854
1809334,1862,1854,1852
1809344,1862,1847,1854
1809354,1863,1852,1854
1809364,1866,1850,1851
1809374,1864,1853,1851
1809384,1871,1854,1853
1809394,1866,1854,1854
1809404,1871,1850,1853
1809414,1870,1854,1851
1809424,1870,1851,1856
1809434,1867,1853,1855
1809444,1867,1853,1856
1809454,1867,1851,1855
1809464,1868,1853,1854
1809474,1866,1851,1854
1809484,1857,1851,1853
1809494,1861,1849,1854
1809504,1861,1849,1853
1809514,1857,1851,1853
1809524,1857,1853,1849
1809534,1857,1853,1851
1809544,1856,1849,1850
1809554,1857,1850,1851
1809564,1856,1853,1847
1809574,1856,1850,1852
1809584,1855,1849,1844
1809594,1856,1849,1843
1809604,1861,1852,1846
1809614,1859,1852,1846
1809624,1858,1850,1846
1809634,1858,1852,1845
1809644,1861,1847,1845
1809654,1863,1850,1846
1809664,1866,1850,1846
1809674,1864,1847,1847
1809684,1869,1853,1849
1809694,1870,1853,1845
1809704,1867,1849,1845
1809714,1867,1851,1846
1809724,1870,1845,1845
1809734,1869,1849,1843
1809744,1869,1851,1845
1809754,1868,1850,1847
1809764,1865,1851,1847
1809774,1866,1850,1843
1809784,1862,1849,1847
1809794,1862,1847,1843
1809804,1860,1852,1844
1809814,1860,1851,1845
1809824,1862,1852,1843
1809834,1863,1853,1847
1809844,1865,1853,1851
1809854,1872,1856,1853
1809864,1872,1859,1856
1809874,1879,1863,1861
1809884,1888,1866,1863
1809894,1895,1872,1868
1809904,1902,1879,1873
1809914,1904,1882,1877
1809924,1906,1883,1883
1809934,1910,1890,1883
1809944,1913,1891,1888
1809954,1911,1899,1891
1809964,1914,1894,1893
1809974,1911,1895,1897
1809984,1907,1895,1894
1809994,1906,1892,1894
1810004,1906,1889,1897
1810014,1904,1891,1902
1810024,1902,1886,1900
1810034,1902,1883,1899
1810044,1901,1879,1901
1810054,1891,1878,1893
1810064,1888,1874,1895
1810074,1885,1872,1891
1810084,1878,1872,1887
1810094,1879,1866,1883
1810104,1872,1866,1882
1810114,1869,1859,1873
1810124,1866,1857,1872
1810134,1860,1856,1872
1810144,1857,1851,1868
1810154,1859,1851,1863
1810164,1856,1849,1858
1810174,1858,1851,1857
1810184,1856,1850,1856
1810194,1856,1849,1856
1810204,1857,1849,1855
1810214,1860,1847,1856
1810224,1858,1850,1856
1810234,1862,1849,1856
1810244,1859,1850,1855
1810254,1861,1847,1856
1810264,1860,1850,1855
1810274,1859,1850,1855
1810284,1860,1851,1857
1810294,1863,1850,1855
1810304,1859,1850,1855
1810314,1863,1851,1854
1810324,1861,1854,1855
1810334,1860,1854,1855
1810344,1858,1855,1853
1810354,1858,1852,1855
1810364,1859,1850,1853
1810374,1861,1853,1853
1810384,1860,1850,1852
1810394,1860,1850,1852
1810404,1858,1850,1848
1810414,1857,1850,1850
1810424,1857,1849,1847
1810434,1857,1851,1845
1810444,1856,1850,1846
1810454,1856,1847,1845
1810464,1856,1847,1846
1810474,1857,1850,1846
1810484,1854,1846,1845
1810494,1855,1850,1853
1810504,1854,1849,1847
1810514,1856,1847,1849
1810524,1857,1847,1851
1810534,1857,1843,1852
1810544,1856,1849,1850
1810554,1858,1851,1854
1810564,1856,1849,1854
1810574,1857,1851,1851
1810584,1858,1844,1854
1810594,1856,1845,1854
1810604,1857,1850,1856
1810614,1856,1849,1852
1810624,1857,1851,1853
1810634,1854,1851,1851
1810644,1855,1853,1855
1810654,1857,1849,1851
1810664,1856,1850,1851
1810674,1856,1849,1852
1810684,1857,1850,1853
1810694,1858,1851,1854
1810704,1858,1849,1849
1810714,1857,1849,1853
1810724,1860,1847,1850
1810734,1859,1851,1850
1810744,1863,1851,1851
1810754,1865,1851,1850
1810764,1867,1851,1854
1810774,1870,1856,1855
1810784,1874,1861,1857
1810794,1882,1866,1863
1810804,1890,1867,1867
1810814,1899,1873,1872
1810824,1903,1877,1875
1810834,1907,1882,1881
1810844,1911,1885,1887
1810854,1914,1890,1889
1810864,1915,1895,1895
1810874,1915,1898,1899
1810884,1916,1895,1897
1810894,1914,1892,1903
1810904,1910,1894,1901
1810914,1910,1895,1903
1810924,1905,1892,1902
1810934,1903,1891,1902
1810944,1903,1887,1903
1810954,1899,1886,1899
1810964,1896,1880,1897
1810974,1891,1880,1898
1810984,1887,1877,1890
1810994,1885,1875,1891
1811004,1879,1871,1885
1811014,1874,1871,1881
1811024,1872,1866,1878
1811034,1871,1863,1873
1811044,1869,1861,1872
1811054,1866,1861,1868
1811064,1861,1857,1861
1811074,1857,1855,1862
1811084,1857,1853,1856
1811094,1856,1852,1855
1811104,1856,1855,1853
1811114,1857,1850,1856
1811124,1855,1855,1853
1811134,1856,1854,1849
1811144,1856,1850,1849
1811154,1856,1846,1849
1811164,1858,1850,1847
1811174,1857,1850,1851
1811184,1862,1851,1849
1811194,1860,1850,1853
1811204,1863,1851,1855
1811214,1861,1847,1855
1811224,1861,1851,1850
1811234,1862,1850,1855
1811244,1863,1845,1851
1811254,1862,1851,1854
1811264,1861,1847,1852
1811274,1861,1847,1851
1811284,1861,1849,1851
1811294,1859,1846,1850
1811304,1857,1845,1851
1811314,1860,1847,1850
1811324,1861,1845,1849
1811334,1862,1843,1849
1811344,1859,1846,1846
1811354,1858,1846,1845
1811364,1861,1846,1845
1811374,1859,1846,1845
1811384,1855,1846,1841
1811394,1857,1845,1845
1811404,1856,1845,1845
1811414,1853,1843,1847
1811424,1854,1843,1844
1811434,1856,1845,1845
1811444,1855,1847,1845
1811454,1855,1843,1846
1811464,1857,1845,1845
1811474,1855,1847,1846
1811484,1856,1847,1846
1811494,1856,1845,1849
1811504,1855,1849,1845
1811514,1855,1847,1845
1811524,1856,1850,1846
1811534,1857,1843,1847
1811544,1855,1845,1844
1811554,1855,1849,1845
1811564,1856,1847,1845
1811574,1856,1847,1847
1811584,1856,1847,1847
1811594,1858,1847,1846
1811604,1855,1846,1847
1811614,1856,1846,1849
1811624,1858,1851,1849
1811634,1858,1851,1851
1811644,1861,1852,1853
1811654,1865,1855,1854
1811664,1871,1857,1860
1811674,1877,1860,1862
1811684,1885,1867,1869
1811694,1893,1870,1872
1811704,1899,1875,1874
1811714,1905,1883,1885
1811724,1909,1882,1885
1811734,1911,1887,1890
1811744,1915,1890,1895
1811754,1914,1891,1898
1811764,1917,1891,1895
1811774,1914,1891,1899
1811784,1914,1894,1902
1811794,1914,1890,1899
1811804,1909,1891,1898
1811814,1906,1889,1898
1811824,1904,1886,1894
1811834,1898,1885,1889
1811844,1899,1882,1890
1811854,1891,1879,1887
1811864,1885,1875,1884
1811874,1883,1873,1879
1811884,1872,1871,1877
1811894,1872,1867,1874
1811904,1866,1863,1872
1811914,1863,1858,1869
1811924,1861,1856,1867
1811934,1858,1856,1862
1811944,1858,1854,1863
1811954,1857,1850,1859
1811964,1859,1852,1858
1811974,1859,1850,1857
1811984,1862,1849,1859
1811994,1863,1851,1861
1812004,1872,1851,1857
1812014,1865,1849,1859
1812024,1867,1850,1859
1812034,1869,1854,1858
1812044,1875,1851,1861
1812054,1872,1852,1857
1812064,1870,1851,1858
1812074,1870,1849,1856
1812084,1871,1853,1859
1812094,1871,1853,1862
1812104,1870,1854,1865
1812114,1872,1853,1856
1812124,1870,1851,1856
1812134,1869,1851,1855
1812144,1871,1851,1855
1812154,1869,1851,1855
1812164,1863,1851,1855
1812174,1866,1849,1852
1812184,1863,1851,1851
1812194,1858,1853,1853
1812204,1856,1851,1851
1812214,1856,1851,1849
1812224,1855,1853,1850
1812234,1856,1851,1846
1812244,1855,1851,1846
1812254,1856,1849,1845
1812264,1855,1852,1845
1812274,1858,1853,1845
1812284,1856,1847,1849
1812294,1851,1847,1844
1812304,1855,1844,1846
1812314,1856,1847,1853
1812324,1855,1849,1850
1812334,1855,1846,1851
1812344,1858,1846,1851
1812354,1859,1847,1855
1812364,1860,1849,1855
1812374,1863,1849,1855
1812384,1860,1847,1855
1812394,1865,1849,1854
1812404,1863,1851,1856
1812414,1867,1850,1853
1812424,1866,1850,1853
1812434,1868,1854,1853
1812444,1867,1852,1853
1812454,1868,1854,1851
1812464,1871,1856,1853
1812474,1873,1856,1855
1812484,1875,1860,1858
1812494,1881,1861,1859
1812504,1887,1867,1866
1812514,1893,1872,1869
1812524,1898,1873,1872
1812534,1903,1878,1878
1812544,1905,1886,1885
1812554,1908,1887,1890
1812564,1913,1891,1890
1812574,1916,1897,1901
1812584,1914,1895,1901
1812594,1924,1898,1904
1812604,1909,1897,1904
1812614,1911,1895,1904
1812624,1913,1892,1902
1812634,1910,1891,1903
1812644,1907,1891,1903
1812654,1904,1886,1897
1812664,1904,1886,1901
1812674,1903,1883,1894
1812684,1903,1880,1894
1812694,1893,1878,1892
1812704,1890,1877,1885
1812714,1883,1872,1883
1812724,1888,1871,1877
1812734,1873,1863,1872
1812744,1872,1861,1871
1812754,1872,1869,1867
1812764,1861,1855,1866
1812774,1858,1855,1861
1812784,1854,1853,1856
1812794,1856,1850,1854
1812804,1852,1849,1850
1812814,1852,1847,1849
1812824,1852,1849,1847
1812834,1855,1853,1850
1812844,1855,1851,1846
1812854,1855,1851,1846
1812864,1857,1855,1846
1812874,1857,1852,1850
1812884,1860,1851,1845
1812894,1867,1851,1852
1812904,1865,1847,1850
1812914,1869,1855,1850
1812924,1868,1849,1851
1812934,1871,1853,1854
1812944,1872,1850,1855
1812954,1871,1851,1855
1812964,1871,1849,1853
1812974,1871,1852,1856
1812984,1871,1849,1858
1812994,1869,1847,1853
1813004,1867,1849,1855
1813014,1866,1850,1853
1813024,1863,1849,1855
1813034,1862,1850,1854
1813044,1859,1849,1852
1813054,1859,1850,1853
1813064,1855,1850,1846
1813074,1857,1851,1849
1813084,1855,1852,1849
1813094,1856,1849,1847
1813104,1854,1850,1849
1813114,1857,1850,1846
1813124,1855,1850,1845
1813134,1854,1850,1847
1813144,1854,1851,1850
1813154,1855,1850,1850
1813164,1854,1850,1849
1813174,1854,1849,1849
1813184,1854,1849,1851
1813194,1856,1849,1855
1813204,1856,1852,1851
1813214,1856,1851,1849
1813224,1857,1850,1851
1813234,1859,1850,1851
1813244,1861,1852,1853
1813254,1861,1847,1849
1813264,1861,1849,1854
1813274,1859,1850,1851
1813284,1857,1848,1850
1813294,1859,1847,1853
1813304,1859,1849,1847
1813314,1857,1847,1847
1813324,1858,1847,1851
1813334,1859,1851,1849
1813344,1857,1849,1847
1813354,1859,1852,1853
1813364,1861,1851,1851
1813374,1866,1856,1851
1813384,1870,1854,1856
1813394,1873,1856,1856
1813404,1878,1861,1862
1813414,1889,1870,1867
1813424,1894,1871,1872
1813434,1904,1876,1875
1813444,1911,1882,1877
1813454,1914,1885,1887
1813464,1920,1890,1892
1813474,1921,1891,1895
1813484,1921,1894,1902
1813494,1919,1893,1904
1813504,1921,1894,1904
1813514,1920,1891,1905
1813524,1917,1894,1904
1813534,1913,1889,1904
1813544,1907,1887,1904
1813554,1904,1889,1904
1813564,1904,1884,1904
1813574,1899,1884,1897
1813584,1894,1877,1898
1813594,1889,1875,1893
1813604,1885,1873,1889
1813614,1877,1872,1886
1813624,1872,1869,1881
1813634,1870,1866,1874
1813644,1865,1864,1872
1813654,1861,1855,1869
1813664,1856,1856,1861
1813674,1853,1851,1859
1813684,1850,1853,1855
1813694,1849,1851,1854
1813704,1845,1849,1850
1813714,1845,1845,1845
1813724,1845,1849,1845
1813734,1844,1849,1843
1813744,1844,1847,1842
1813754,1845,1847,1843
1813764,1852,1850,1846
1813774,1851,1847,1846
1813784,1850,1845,1846
1813794,1852,1850,1850
1813804,1852,1846,1853
1813814,1852,1847,1846
1813824,1856,1847,1854
1813834,1854,1849,1851
1813844,1853,1848,1855
1813854,1854,1847,1854
1813864,1854,1846,1853
1813874,1854,1846,1856
1813884,1855,1850,1855
1813894,1856,1845,1851
1813904,1853,1847,1854
1813914,1855,1845,1849
1813924,1854,1849,1853
1813934,1853,1850,1849
1813944,1854,1847,1845
1813954,1853,1847,1844
1813964,1854,1851,1846
1813974,1851,1849,1843
1813984,1851,1849,1845
1813994,1851,1849,1842
1814004,1854,1850,1843
1814014,1852,1850,1841
1814024,1851,1847,1842
1814034,1855,1847,1842
1814044,1853,1845,1843
1814054,1854,1847,1845
1814064,1854,1845,1847
1814074,1857,1846,1845
1814084,1857,1845,1847
1814094,1858,1846,1852
1814104,1857,1845,1850
1814114,1858,1843,1851
1814124,1857,1846,1854
1814134,1857,1847,1849
1814144,1861,1845,1847
1814154,1856,1846,1847
1814164,1856,1849,1847
1814174,1856,1849,1850
1814184,1854,1850,1847
1814194,1856,1846,1847
1814204,1856,1846,1845
1814214,1853,1844,1845
1814224,1847,1851,1843
1814234,1854,1846,1841
1814244,1854,1847,1844
1814254,1855,1847,1845
1814264,1859,1850,1846
1814274,1861,1853,1845
1814284,1869,1857,1853
1814294,1876,1861,1856
1814304,1883,1867,1858
1814314,1889,1871,1865
1814324,1899,1874,1871
1814334,1904,1879,1872
1814344,1908,1885,1875
1814354,1911,1888,1883
1814364,1913,1891,1885
1814374,1915,1893,1890
1814384,1910,1897,1890
1814394,1914,1895,1890
1814404,1913,1894,1891
1814414,1906,1895,1893
1814424,1905,1893,1894
1814434,1905,1889,1890
1814444,1903,1889,1890
1814454,1898,1883,1887
1814464,1894,1879,1887
1814474,1890,1879,1887
1814484,1887,1877,1882
1814494,1879,1872,1878
1814504,1878,1872,1875
1814514,1874,1868,1872
1814524,1870,1861,1870
1814534,1867,1858,1868
1814544,1862,1855,1860
1814554,1861,1851,1859
1814564,1856,1851,1856
1814574,1857,1849,1856
1814584,1856,1850,1854
1814594,1861,1845,1856
1814604,1858,1847,1854
1814614,1858,1847,1854
1814624,1861,1848,1851
1814634,1865,1853,1853
1814644,1861,1846,1852
1814654,1864,1853,1853
1814664,1863,1851,1855
1814674,1859,1854,1851
1814684,1865,1853,1850
1814694,1863,1854,1851
1814704,1866,1853,1854
1814714,1865,1854,1850
1814724,1867,1854,1847
1814734,1866,1853,1851
1814744,1867,1855,1851
1814754,1865,1850,1847
1814764,1861,1855,1846
1814774,1860,1850,1845
1814784,1861,1855,1843
1814794,1859,1854,1843
1814804,1857,1853,1843
1814814,1858,1850,1841
1814824,1857,1853,1840
1814834,1856,1853,1840
1814844,1855,1851,1840
1814854,1859,1849,1840
1814864,1857,1850,1840
1814874,1859,1851,1841
1814884,1858,1850,1841
1814894,1860,1850,1842
1814904,1862,1851,1844
1814914,1863,1850,1848
1814924,1861,1849,1847
1814934,1861,1849,1849
1814944,1861,1850,1850
1814954,1862,1849,1850
1814964,1862,1847,1852
1814974,1862,1849,1847
1814984,1863,1849,1851
1814994,1862,1849,1853
1815004,1867,1847,1849
1815014,1867,1846,1850
1815024,1862,1851,1850
1815034,1864,1850,1847
1815044,1863,1847,1847
1815054,1858,1848,1846
1815064,1863,1850,1847
1815074,1863,1850,1849
1815084,1865,1854,1845
1815094,1868,1853,1848
1815104,1872,1856,1854
1815114,1877,1862,1855
1815124,1883,1863,1861
1815134,1894,1870,1865
1815144,1899,1875,1872
1815154,1904,1878,1875
1815164,1910,1885,1882
1815174,1914,1886,1890
1815184,1919,1892,1893
1815194,1919,1895,1895
1815204,1921,1894,1902
1815214,1923,1895,1904
1815224,1919,1893,1901
1815234,1918,1898,1902
1815244,1919,1894,1903
1815254,1909,1893,1898
1815264,1907,1888,1899
1815274,1904,1886,1895
1815284,1901,1888,1893
1815294,1898,1878,1888
1815304,1891,1875,1886
1815314,1890,1875,1882
1815324,1886,1872,1878
1815334,1881,1871,1879
1815344,1875,1865,1870
1815354,1872,1866,1872
1815364,1870,1859,1870
1815374,1866,1858,1865
1815384,1859,1855,1866
1815394,1863,1853,1859
1815404,1859,1850,1854
1815414,1859,1851,1856
1815424,1856,1847,1857
1815434,1856,1852,1848
1815444,1855,1854,1861
1815454,1855,1853,1854
1815464,1856,1849,1855
1815474,1855,1846,1855
1815484,1855,1848,1854
1815494,1855,1848,1859
1815504,1855,1851,1856
1815514,1854,1852,1853
1815524,1855,1853,1859
1815534,1855,1853,1861
1815544,1856,1853,1856
1815554,1854,1850,1858
1815564,1858,1853,1857
1815574,1863,1851,1862
1815584,1858,1851,1862
1815594,1858,1851,1861
1815604,1856,1850,1859
1815614,1857,1850,1859
1815624,1856,1850,1859
1815634,1857,1846,1859
1815644,1857,1847,1861
1815654,1860,1843,1858
1815664,1857,1848,1859
1815674,1858,1846,1862
1815684,1856,1844,1859
1815694,1856,1847,1857
1815704,1858,1845,1856
1815714,1860,1847,1858
1815724,1859,1846,1857
1815734,1857,1849,1856
1815744,1857,1850,1856
1815754,1858,1847,1853
1815764,1859,1849,1853
1815774,1856,1847,1854
1815784,1858,1850,1853
1815794,1856,1847,1849
1815804,1857,1851,1847
1815814,1859,1851,1851
1815824,1858,1850,1845
1815834,1861,1851,1847
1815844,1857,1849,1844
1815854,1854,1850,1845
1815864,1854,1851,1846
1815874,1854,1848,1841
1815884,1852,1847,1847
1815894,1856,1849,1846
1815904,1854,1847,1851
1815914,1853,1846,1852
1815924,1854,1850,1852
1815934,1853,1847,1849
1815944,1853,1846,1851
1815954,1852,1847,1852
1815964,1851,1847,1850
1815974,1854,1847,1853
1815984,1851,1849,1850
1815994,1847,1846,1847
1816004,1854,1849,1847
1816014,1851,1847,1844
1816024,1854,1852,1841
1816034,1857,1849,1842
1816044,1854,1850,1842
1816054,1857,1851,1846
1816064,1863,1855,1846
1816074,1863,1857,1849
1816084,1872,1858,1853
1816094,1881,1867,1857
1816104,1890,1872,1862
1816114,1900,1877,1871
1816124,1904,1880,1874
1816134,1909,1888,1878
1816144,1917,1890,1885
1816154,1918,1895,1890
1816164,1919,1899,1898
1816174,1919,1901,1899
1816184,1921,1898,1900
1816194,1919,1899,1904
1816204,1918,1898,1904
1816214,1919,1895,1904
1816224,1917,1898,1904
1816234,1911,1893,1904
1816244,1906,1891,1901
1816254,1907,1889,1898
1816264,1904,1887,1896
1816274,1900,1883,1893
1816284,1899,1876,1888
1816294,1890,1877,1885
1816304,1887,1872,1883
1816314,1879,1871,1879
1816324,1877,1867,1879
1816334,1872,1864,1872
1816344,1872,1857,1872
1816354,1866,1857,1871
1816364,1863,1855,1870
1816374,1859,1852,1863
1816384,1862,1847,1863
1816394,1859,1848,1861
1816404,1859,1848,1859
1816414,1862,1844,1859
1816424,1862,1847,1859
1816434,1862,1843,1858
1816444,1863,1849,1861
1816454,1863,1847,1857
1816464,1865,1851,1856
1816474,1866,1850,1854
1816484,1867,1853,1856
1816494,1863,1855,1853
1816504,1867,1853,1851
1816514,1867,1851,1849
1816524,1866,1855,1852
1816534,1865,1854,1849
1816544,1864,1854,1851
1816554,1863,1850,1853
1816564,1865,1854,1847
1816574,1859,1851,1855
1816584,1863,1855,1856
1816594,1862,1850,1853
1816604,1860,1852,1857
1816614,1859,1847,1856
1816624,1859,1850,1856
1816634,1861,1847,1853
1816644,1860,1843,1858
1816654,1862,1849,1857
1816664,1857,1845,1856
1816674,1859,1844,1859
1816684,1860,1845,1856
1816694,1859,1845,1855
1816704,1856,1846,1856
1816714,1856,1847,1853
1816724,1856,1843,1852
1816734,1855,1845,1850
1816744,1855,1845,1847
1816754,1854,1846,1847
1816764,1853,1846,1845
1816774,1853,1847,1842
1816784,1854,1848,1841
1816794,1852,1850,1840
1816804,1851,1849,1839
1816814,1851,1850,1835
1816824,1853,1846,1835
1816834,1853,1849,1835
1816844,1850,1847,1831
1816854,1855,1850,1835
1816864,1853,1853,1837
1816874,1855,1850,1839
1816884,1855,1849,1835
1816894,1856,1847,1839
1816904,1853,1846,1839
1816914,1855,1845,1845
1816924,1857,1845,1843
1816934,1856,1843,1847
1816944,1856,1843,1843
1816954,1856,1845,1853
1816964,1857,1844,1857
1816974,1856,1841,1857
1816984,1857,1843,1859
1816994,1857,1845,1859
1817004,1858,1845,1858
1817014,1857,1843,1856
1817024,1856,1843,1856
1817034,1856,1846,1851
1817044,1861,1849,1842
1817054,1861,1853,1840
1817064,1866,1853,1840
1817074,1869,1856,1839
1817084,1872,1859,1836
1817094,1881,1865,1840
1817104,1887,1870,1840
1817114,1893,1873,1845
1817124,1897,1877,1854
1817134,1903,1884,1863
1817144,1904,1887,1872
1817154,1905,1889,1879
1817164,1908,1891,1886
1817174,1905,1891,1893
1817184,1906,1889,1899
1817194,1906,1891,1904
1817204,1906,1891,1905
1817214,1904,1890,1906
1817224,1904,1889,1905
1817234,1901,1888,1904
1817244,1895,1884,1902
1817254,1897,1885,1897
1817264,1893,1877,1891
1817274,1890,1877,1885
1817284,1889,1875,1875
1817294,1884,1873,1872
1817304,1879,1872,1865
1817314,1875,1870,1854
1817324,1872,1867,1849
1817334,1868,1862,1841
1817344,1867,1859,1838
1817354,1861,1854,1833
1817364,1859,1857,1829
1817374,1857,1852,1825
1817384,1855,1853,1824
1817394,1850,1847,1830
1817404,1845,1849,1825
1817414,1845,1847,1828
1817424,1845,1843,1835
1817434,1844,1847,1838
1817444,1845,1843,1837
1817454,1847,1847,1841
1817464,1846,1846,1845
1817474,1849,1847,1843
1817484,1847,1846,1847
1817494,1850,1846,1853
1817504,1849,1851,1851
1817514,1854,1850,1850
1817524,1853,1847,1850
1817534,1853,1850,1849
1817544,1855,1849,1844
1817554,1856,1849,1847
1817564,1856,1850,1847
1817574,1857,1846,1842
1817584,1855,1847,1845
1817594,1856,1852,1845
1817604,1856,1849,1840
1817614,1859,1849,1841
1817624,1850,1850,1841
1817634,1851,1847,1845
1817644,1854,1847,1841
1817654,1853,1847,1841
1817664,1851,1845,1841
1817674,1851,1847,1843
1817684,1853,1848,1846
1817694,1853,1847,1843
1817704,1853,1845,1847
1817714,1854,1843,1851
1817724,1851,1844,1852
1817734,1854,1849,1852
1817744,1855,1844,1854
1817754,1855,1845,1853
1817764,1857,1845,1854
1817774,1857,1850,1855
1817784,1858,1847,1854
1817794,1856,1846,1855
1817804,1854,1849,1854
1817814,1856,1849,1854
1817824,1857,1847,1856
1817834,1857,1847,1856
1817844,1857,1847,1855
1817854,1856,1847,1855
1817864,1857,1843,1854
1817874,1856,1847,1858
1817884,1856,1846,1857
1817894,1858,1847,1858
1817904,1859,1851,1857
1817914,1865,1852,1860
1817924,1867,1855,1861
1817934,1872,1855,1863
1817944,1873,1859,1868
1817954,1879,1862,1869
1817964,1887,1870,1872
1817974,1893,1872,1873
1817984,1899,1877,1882
1817994,1910,1881,1887
1818004,1907,1887,1889
1818014,1911,1888,1892
1818024,1913,1891,1899
1818034,1911,1894,1902
1818044,1910,1895,1901
1818054,1911,1899,1901
1818064,1911,1895,1904
1818074,1907,1894,1904
1818084,1905,1891,1903
1818094,1904,1883,1902
1818104,1904,1888,1901
1818114,1898,1886,1899
1818124,1897,1884,1899
1818134,1894,1882,1893
1818144,1893,1877,1893
1818154,1890,1872,1889
1818164,1887,1872,1887
1818174,1882,1870,1882
1818184,1876,1866,1875
1818194,1872,1861,1872
1818204,1867,1855,1869
1818214,1866,1856,1867
1818224,1855,1854,1862
1818234,1859,1851,1860
1818244,1861,1851,1858
1818254,1856,1847,1861
1818264,1858,1845,1861
