timestamp_ms_device,ppg_finger1,ppg_finger2,ppg_finger3
1679208,1910,1877,1894
1679218,1911,1875,1895
1679228,1906,1877,1898
1679238,1908,1873,1899
1679248,1905,1872,1895
1679258,1904,1872,1891
1679268,1904,1869,1886
1679278,1898,1871,1883
1679288,1894,1869,1879
1679298,1890,1865,1878
1679308,1888,1867,1876
1679318,1882,1863,1872
1679328,1878,1862,1872
1679338,1877,1859,1867
1679348,1872,1860,1866
1679358,1875,1861,1863
1679368,1872,1857,1858
1679378,1867,1857,1857
1679388,1865,1856,1856
1679398,1860,1855,1856
1679408,1859,1855,1854
1679418,1857,1854,1854
1679428,1855,1854,1851
1679438,1857,1853,1849
1679448,1855,1856,1850
1679458,1856,1855,1850
1679468,1855,1850,1850
1679478,1858,1854,1848
1679488,1855,1856,1847
1679498,1856,1856,1847
1679508,1859,1856,1849
1679518,1856,1854,1847
1679528,1856,1855,1846
1679538,1854,1853,1842
1679548,1856,1854,1842
1679558,1855,1854,1847
1679568,1853,1855,1842
1679578,1857,1854,1843
1679588,1854,1855,1845
1679598,1855,1855,1842
1679608,1854,1855,1842
1679618,1855,1854,1844
1679628,1852,1855,1842
1679638,1855,1854,1843
1679648,1855,1853,1845
1679658,1853,1855,1843
1679668,1851,1855,1844
1679678,1851,1853,1847
1679688,1851,1853,1847
1679698,1854,1855,1845
1679708,1855,1850,1849
1679718,1853,1855,1847
1679728,1856,1855,1845
1679738,1855,1852,1850
1679748,1855,1854,1847
1679758,1856,1853,1851
1679768,1858,1855,1849
1679778,1861,1856,1851
1679788,1856,1853,1851
1679798,1858,1855,1853
1679808,1862,1857,1855
1679818,1864,1857,1857
1679828,1868,1859,1857
1679838,1871,1861,1863
1679848,1873,1860,1869
1679858,1881,1867,1872
1679868,1889,1867,1875
1679878,1894,1873,1881
1679888,1902,1873,1891
1679898,1904,1875,1888
1679908,1904,1874,1894
1679918,1904,1876,1894
1679928,1907,1876,1892
1679938,1904,1877,1891
1679948,1904,1872,1891
1679958,1902,1877,1885
1679968,1897,1872,1885
1679978,1895,1871,1882
1679988,1891,1872,1879
1679998,1889,1871,1875
1680008,1883,1867,1872
1680018,1879,1866,1872
1680028,1875,1862,1867
1680038,1871,1866,1866
1680048,1871,1860,1860
1680058,1866,1858,1861
1680068,1861,1858,1855
1680078,1859,1853,1854
1680088,1856,1856,1850
1680098,1852,1855,1847
1680108,1852,1856,1840
1680118,1849,1853,1842
1680128,1851,1853,1845
1680138,1851,1855,1846
1680148,1851,1855,1849
1680158,1853,1855,1849
1680168,1854,1855,1846
1680178,1856,1856,1849
1680188,1857,1856,1851
1680198,1856,1856,1854
1680208,1856,1858,1850
1680218,1858,1857,1854
1680228,1862,1856,1853
1680238,1861,1855,1855
1680248,1865,1857,1855
1680258,1861,1856,1854
1680268,1862,1855,1856
1680278,1859,1856,1854
1680288,1861,1856,1851
1680298,1858,1855,1853
1680308,1856,1856,1851
1680318,1858,1851,1851
1680328,1858,1853,1850
1680338,1856,1851,1847
1680348,1856,1854,1850
1680358,1856,1853,1847
1680368,1851,1854,1849
1680378,1856,1853,1849
1680388,1856,1847,1846
1680398,1856,1854,1850
1680408,1856,1856,1849
1680418,1856,1853,1853
1680428,1858,1854,1852
1680438,1859,1853,1850
1680448,1855,1852,1854
1680458,1859,1854,1855
1680468,1861,1855,1857
1680478,1867,1854,1856
1680488,1872,1853,1858
1680498,1872,1856,1861
1680508,1872,1857,1866
1680518,1877,1861,1872
1680528,1887,1866,1875
1680538,1894,1866,1883
1680548,1899,1871,1887
1680558,1903,1872,1894
1680568,1904,1872,1895
1680578,1907,1874,1901
1680588,1907,1872,1899
1680598,1909,1874,1899
1680608,1905,1872,1894
1680618,1906,1873,1895
1680628,1903,1872,1891
1680638,1901,1872,1892
1680648,1895,1872,1887
1680658,1892,1872,1885
1680668,1888,1866,1883
1680678,1887,1866,1877
1680688,1881,1863,1872
1680698,1877,1867,1872
1680708,1873,1866,1869
1680718,1871,1862,1865
1680728,1866,1857,1863
1680738,1863,1858,1858
1680748,1861,1854,1859
1680758,1862,1854,1856
1680768,1858,1857,1854
1680778,1857,1855,1853
1680788,1862,1856,1854
1680798,1861,1853,1854
1680808,1859,1856,1854
1680818,1859,1854,1855
1680828,1862,1855,1855
1680838,1856,1853,1857
1680848,1858,1855,1857
1680858,1857,1853,1855
1680868,1855,1856,1856
1680878,1858,1854,1855
1680888,1857,1853,1857
1680898,1856,1855,1855
1680908,1859,1853,1857
1680918,1859,1857,1856
1680928,1857,1855,1856
1680938,1857,1856,1856
1680948,1858,1857,1854
1680958,1858,1854,1856
1680968,1858,1854,1853
1680978,1857,1853,1851
1680988,1856,1853,1851
1680998,1856,1855,1850
1681008,1856,1855,1846
1681018,1855,1854,1845
1681028,1855,1854,1847
1681038,1855,1856,1846
1681048,1855,1853,1850
1681058,1855,1851,1843
1681068,1853,1854,1846
1681078,1853,1854,1845
1681088,1856,1853,1846
1681098,1855,1852,1845
1681108,1858,1855,1847
1681118,1856,1856,1847
1681128,1855,1851,1849
1681138,1858,1851,1846
1681148,1857,1853,1847
1681158,1861,1853,1850
1681168,1861,1855,1855
1681178,1862,1855,1853
1681188,1866,1856,1857
1681198,1872,1858,1862
1681208,1873,1861,1869
1681218,1882,1866,1872
1681228,1886,1869,1874
1681238,1890,1872,1881
1681248,1901,1872,1886
1681258,1904,1874,1888
1681268,1904,1874,1893
1681278,1904,1878,1894
1681288,1904,1874,1894
1681298,1904,1875,1895
1681308,1904,1873,1891
1681318,1905,1872,1891
1681328,1901,1873,1887
1681338,1900,1872,1887
1681348,1895,1871,1887
1681358,1894,1868,1881
1681368,1898,1871,1879
1681378,1891,1863,1879
1681388,1889,1866,1878
1681398,1888,1862,1873
1681408,1885,1859,1872
1681418,1882,1861,1872
1681428,1877,1856,1869
1681438,1874,1857,1866
1681448,1873,1856,1861
1681458,1867,1854,1862
1681468,1867,1854,1858
1681478,1867,1851,1856
1681488,1867,1853,1855
1681498,1861,1854,1857
1681508,1861,1853,1855
1681518,1862,1856,1855
1681528,1860,1855,1857
1681538,1858,1856,1855
1681548,1862,1851,1856
1681558,1861,1856,1856
1681568,1860,1856,1856
1681578,1860,1855,1857
1681588,1859,1854,1854
1681598,1858,1856,1854
1681608,1857,1854,1854
1681618,1857,1855,1851
1681628,1856,1854,1855
1681638,1856,1853,1855
1681648,1857,1855,1853
1681658,1857,1855,1852
1681668,1858,1851,1851
1681678,1857,1853,1850
1681688,1861,1854,1850
1681698,1862,1851,1853
1681708,1864,1854,1852
1681718,1864,1854,1854
1681728,1865,1852,1850
1681738,1857,1853,1850
1681748,1861,1851,1851
1681758,1858,1853,1847
1681768,1856,1853,1850
1681778,1856,1852,1851
1681788,1855,1847,1849
1681798,1851,1853,1847
1681808,1851,1851,1843
1681818,1851,1853,1847
1681828,1851,1849,1842
1681838,1850,1851,1842
1681848,1845,1854,1840
1681858,1842,1853,1840
1681868,1846,1850,1841
1681878,1845,1853,1840
1681888,1850,1854,1842
1681898,1852,1855,1844
1681908,1855,1856,1852
1681918,1862,1861,1854
1681928,1871,1865,1861
1681938,1872,1867,1867
1681948,1879,1871,1873
1681958,1885,1872,1879
1681968,1893,1873,1884
1681978,1894,1877,1889
1681988,1899,1874,1893
1681998,1903,1875,1894
1682008,1904,1875,1897
1682018,1905,1875,1891
1682028,1904,1872,1893
1682038,1904,1878,1892
1682048,1902,1872,1888
1682058,1902,1871,1884
1682068,1900,1872,1883
1682078,1892,1870,1879
1682088,1890,1867,1872
1682098,1886,1863,1869
1682108,1883,1859,1867
1682118,1872,1859,1862
1682128,1870,1856,1859
1682138,1866,1856,1854
1682148,1859,1854,1853
1682158,1856,1855,1846
1682168,1851,1854,1842
1682178,1851,1854,1841
1682188,1845,1850,1840
1682198,1849,1853,1840
1682208,1851,1851,1840
1682218,1847,1852,1850
1682228,1853,1850,1844
1682238,1855,1858,1847
1682248,1856,1854,1849
1682258,1856,1855,1853
1682268,1863,1856,1856
1682278,1861,1856,1856
1682288,1862,1857,1859
1682298,1862,1858,1858
1682308,1865,1856,1861
1682318,1861,1853,1859
1682328,1864,1855,1858
1682338,1866,1855,1858
1682348,1862,1853,1856
1682358,1865,1853,1856
1682368,1863,1855,1853
1682378,1861,1851,1850
1682388,1860,1854,1853
1682398,1859,1854,1851
1682408,1856,1851,1849
1682418,1857,1849,1846
1682428,1856,1853,1845
1682438,1854,1850,1846
1682448,1851,1851,1843
1682458,1850,1847,1840
1682468,1850,1851,1842
1682478,1851,1851,1840
1682488,1853,1850,1838
1682498,1850,1854,1840
1682508,1854,1853,1840
1682518,1854,1847,1840
1682528,1856,1852,1842
1682538,1854,1850,1841
1682548,1857,1853,1841
1682558,1854,1854,1845
1682568,1856,1850,1842
1682578,1854,1853,1845
1682588,1845,1853,1847
1682598,1854,1855,1846
1682608,1857,1852,1851
1682618,1855,1854,1850
1682628,1857,1854,1854
1682638,1860,1855,1856
1682648,1863,1857,1858
1682658,1868,1857,1866
1682668,1872,1859,1872
1682678,1873,1866,1876
1682688,1881,1869,1881
1682698,1895,1870,1886
1682708,1892,1873,1887
1682718,1894,1872,1891
1682728,1902,1872,1891
1682738,1901,1877,1893
1682748,1902,1873,1895
1682758,1904,1875,1891
1682768,1904,1873,1893
1682778,1901,1872,1888
1682788,1901,1872,1887
1682798,1898,1872,1885
1682808,1900,1871,1878
1682818,1895,1869,1878
1682828,1899,1860,1874
1682838,1893,1862,1873
1682848,1887,1861,1872
1682858,1886,1862,1869
1682868,1882,1857,1866
1682878,1881,1859,1863
1682888,1874,1857,1858
1682898,1872,1853,1856
1682908,1870,1857,1854
1682918,1869,1855,1854
1682928,1865,1851,1853
1682938,1871,1854,1854
1682948,1870,1856,1851
1682958,1872,1853,1856
1682968,1872,1855,1857
1682978,1872,1856,1856
1682988,1873,1856,1859
1682998,1878,1856,1862
1683008,1879,1856,1864
1683018,1879,1858,1866
1683028,1879,1856,1866
1683038,1880,1856,1866
1683048,1872,1856,1867
1683058,1873,1856,1863
1683068,1872,1856,1860
1683078,1866,1855,1858
1683088,1863,1855,1858
1683098,1855,1853,1856
1683108,1852,1852,1852
1683118,1846,1854,1845
1683128,1845,1850,1845
1683138,1842,1852,1843
1683148,1840,1846,1843
1683158,1840,1849,1841
1683168,1840,1846,1841
1683178,1840,1850,1841
1683188,1842,1850,1840
1683198,1842,1853,1840
1683208,1841,1851,1840
1683218,1843,1851,1841
1683228,1849,1853,1840
1683238,1847,1853,1840
1683248,1851,1855,1841
1683258,1852,1851,1840
1683268,1846,1853,1841
1683278,1853,1851,1843
1683288,1853,1853,1846
1683298,1853,1855,1841
1683308,1857,1851,1843
1683318,1859,1856,1851
1683328,1865,1856,1855
1683338,1868,1858,1861
1683348,1872,1861,1866
1683358,1875,1862,1871
1683368,1883,1869,1873
1683378,1892,1870,1881
1683388,1898,1873,1886
1683398,1904,1873,1893
1683408,1907,1874,1895
1683418,1909,1873,1900
1683428,1915,1875,1902
1683438,1917,1875,1903
1683448,1919,1874,1900
1683458,1915,1873,1902
1683468,1910,1874,1894
1683478,1909,1874,1895
1683488,1907,1869,1889
1683498,1904,1871,1890
1683508,1904,1866,1886
1683518,1902,1867,1881
1683528,1895,1863,1877
1683538,1890,1861,1873
1683548,1882,1858,1872
1683558,1878,1857,1869
1683568,1874,1857,1869
1683578,1872,1855,1862
1683588,1865,1851,1857
1683598,1859,1851,1856
1683608,1859,1853,1855
1683618,1855,1851,1854
1683628,1854,1852,1853
1683638,1855,1853,1853
1683648,1854,1854,1851
1683658,1853,1851,1847
1683668,1856,1854,1852
1683678,1856,1855,1852
1683688,1856,1854,1851
1683698,1861,1855,1855
1683708,1862,1855,1856
1683718,1866,1856,1858
1683728,1869,1856,1857
1683738,1872,1857,1860
1683748,1872,1856,1859
1683758,1877,1857,1861
1683768,1874,1857,1862
1683778,1877,1856,1863
1683788,1872,1855,1862
1683798,1871,1855,1859
1683808,1872,1854,1857
1683818,1867,1851,1857
1683828,1861,1853,1855
1683838,1857,1850,1856
1683848,1855,1851,1853
1683858,1847,1850,1852
1683868,1845,1852,1846
1683878,1843,1851,1847
1683888,1841,1850,1843
1683898,1841,1850,1841
1683908,1843,1850,1842
1683918,1840,1851,1844
1683928,1844,1852,1845
1683938,1843,1850,1843
1683948,1850,1853,1847
1683958,1854,1855,1853
1683968,1860,1857,1856
1683978,1866,1859,1860
1683988,1872,1863,1872
1683998,1882,1863,1877
1684008,1890,1867,1884
1684018,1898,1871,1888
1684028,1904,1877,1898
1684038,1911,1875,1903
1684048,1918,1872,1906
1684058,1920,1877,1905
1684068,1920,1879,1910
1684078,1922,1877,1909
1684088,1918,1877,1906
1684098,1913,1875,1905
1684108,1909,1872,1902
1684118,1909,1872,1897
1684128,1902,1871,1893
1684138,1899,1868,1890
1684148,1892,1869,1882
1684158,1890,1867,1879
1684168,1885,1863,1875
1684178,1882,1862,1872
1684188,1877,1862,1871
1684198,1873,1862,1867
1684208,1872,1859,1866
1684218,1867,1857,1862
1684228,1863,1856,1857
1684238,1858,1856,1855
1684248,1855,1854,1853
1684258,1849,1853,1846
1684268,1846,1852,1849
1684278,1847,1855,1847
1684288,1843,1852,1846
1684298,1845,1853,1845
1684308,1843,1854,1842
1684318,1849,1855,1843
1684328,1849,1854,1842
1684338,1850,1853,1843
1684348,1856,1855,1847
1684358,1856,1856,1846
1684368,1859,1853,1847
1684378,1865,1853,1845
1684388,1865,1855,1850
1684398,1869,1857,1850
1684408,1867,1856,1850
1684418,1868,1855,1851
1684428,1871,1851,1849
1684438,1868,1854,1845
1684448,1863,1854,1845
1684458,1861,1853,1846
1684468,1859,1853,1845
1684478,1855,1851,1845
1684488,1855,1854,1846
1684498,1851,1850,1843
1684508,1849,1852,1843
1684518,1847,1852,1845
1684528,1843,1853,1841
1684538,1841,1851,1840
1684548,1846,1850,1840
1684558,1845,1851,1843
1684568,1843,1855,1842
1684578,1848,1854,1843
1684588,1851,1853,1845
1684598,1852,1853,1847
1684608,1857,1856,1851
1684618,1863,1857,1853
1684628,1871,1861,1858
1684638,1872,1861,1865
1684648,1882,1868,1872
1684658,1886,1872,1875
1684668,1895,1873,1882
1684678,1902,1876,1888
1684688,1902,1873,1890
1684698,1906,1882,1893
1684708,1905,1878,1895
1684718,1904,1879,1891
1684728,1905,1877,1893
1684738,1900,1877,1890
1684748,1903,1873,1891
1684758,1899,1871,1888
1684768,1899,1872,1885
1684778,1893,1870,1882
1684788,1894,1870,1881
1684798,1892,1866,1883
1684808,1889,1865,1878
1684818,1888,1861,1877
1684828,1885,1861,1876
1684838,1881,1861,1872
1684848,1879,1856,1872
1684858,1875,1855,1870
1684868,1872,1854,1866
1684878,1865,1851,1861
1684888,1862,1847,1858
1684898,1858,1844,1854
1684908,1857,1850,1853
1684918,1854,1847,1850
1684928,1849,1846,1849
1684938,1845,1845,1845
1684948,1847,1847,1842
1684958,1841,1845,1841
1684968,1840,1847,1841
1684978,1840,1851,1841
1684988,1840,1847,1840
1684998,1840,1848,1841
1685008,1842,1849,1843
1685018,1843,1851,1841
1685028,1845,1849,1842
1685038,1847,1849,1842
1685048,1847,1853,1845
1685058,1854,1851,1846
1685068,1854,1849,1850
1685078,1858,1850,1850
1685088,1857,1849,1852
1685098,1862,1850,1853
1685108,1861,1851,1852
1685118,1863,1845,1854
1685128,1866,1850,1854
1685138,1863,1849,1855
1685148,1861,1845,1854
1685158,1867,1847,1856
1685168,1863,1847,1853
1685178,1859,1846,1854
1685188,1857,1846,1853
1685198,1856,1845,1847
1685208,1855,1845,1846
1685218,1856,1844,1846
1685228,1854,1842,1847
1685238,1855,1849,1847
1685248,1853,1845,1845
1685258,1853,1850,1845
1685268,1853,1850,1853
1685278,1856,1851,1854
1685288,1860,1853,1857
1685298,1869,1858,1861
1685308,1873,1861,1871
1685318,1884,1867,1875
1685328,1892,1867,1883
1685338,1899,1872,1891
1685348,1905,1873,1895
1685358,1912,1872,1902
1685368,1914,1874,1902
1685378,1916,1874,1903
1685388,1915,1873,1895
1685398,1915,1873,1901
1685408,1911,1873,1893
1685418,1906,1872,1885
1685428,1903,1870,1888
1685438,1898,1867,1881
1685448,1891,1865,1875
1685458,1886,1865,1877
1685468,1883,1862,1872
1685478,1879,1859,1866
1685488,1874,1857,1863
1685498,1872,1855,1858
1685508,1870,1847,1856
1685518,1865,1858,1846
1685528,1858,1854,1843
1685538,1855,1852,1840
1685548,1854,1854,1840
1685558,1853,1854,1840
1685568,1855,1850,1840
1685578,1853,1853,1840
1685588,1854,1851,1839
1685598,1853,1850,1840
1685608,1850,1851,1841
1685618,1853,1851,1841
1685628,1856,1849,1840
1685638,1855,1854,1841
1685648,1855,1853,1840
1685658,1857,1851,1843
1685668,1857,1851,1842
1685678,1857,1853,1845
1685688,1857,1853,1844
1685698,1856,1850,1842
1685708,1857,1854,1845
1685718,1857,1853,1843
1685728,1857,1849,1842
1685738,1856,1851,1845
1685748,1857,1850,1845
1685758,1856,1850,1842
1685768,1855,1850,1842
1685778,1856,1850,1844
1685788,1855,1853,1842
1685798,1853,1849,1840
1685808,1855,1851,1841
1685818,1855,1851,1842
1685828,1856,1853,1844
1685838,1856,1854,1840
1685848,1855,1851,1843
1685858,1856,1852,1842
1685868,1857,1854,1845
1685878,1859,1855,1844
1685888,1859,1854,1845
1685898,1861,1851,1847
1685908,1862,1855,1844
1685918,1865,1852,1850
1685928,1868,1853,1850
1685938,1861,1853,1847
1685948,1861,1853,1847
1685958,1861,1854,1852
1685968,1865,1854,1851
1685978,1867,1856,1855
1685988,1872,1858,1861
1685998,1873,1859,1866
1686008,1879,1863,1872
1686018,1887,1868,1878
1686028,1894,1872,1885
1686038,1904,1873,1893
1686048,1908,1872,1899
1686058,1918,1876,1897
1686068,1918,1878,1903
1686078,1920,1874,1903
1686088,1919,1877,1902
1686098,1918,1873,1901
1686108,1915,1875,1897
1686118,1909,1872,1894
1686128,1907,1872,1890
1686138,1903,1871,1888
1686148,1898,1872,1879
1686158,1894,1869,1879
1686168,1889,1866,1872
1686178,1881,1863,1871
1686188,1876,1866,1872
1686198,1872,1859,1863
1686208,1870,1857,1858
1686218,1859,1856,1855
1686228,1860,1857,1853
1686238,1856,1856,1848
1686248,1850,1855,1845
1686258,1848,1852,1842
1686268,1850,1853,1840
1686278,1847,1853,1842
1686288,1843,1847,1843
1686298,1850,1850,1844
1686308,1847,1852,1845
1686318,1847,1856,1849
1686328,1851,1855,1849
1686338,1850,1853,1847
1686348,1853,1855,1851
1686358,1855,1855,1853
1686368,1854,1855,1850
1686378,1855,1856,1851
1686388,1856,1856,1846
1686398,1858,1854,1847
1686408,1856,1856,1843
1686418,1859,1855,1845
1686428,1856,1856,1841
1686438,1856,1855,1841
1686448,1857,1856,1841
1686458,1856,1854,1840
1686468,1857,1852,1840
1686478,1853,1854,1839
1686488,1853,1855,1839
1686498,1851,1853,1839
1686508,1847,1855,1839
1686518,1851,1854,1837
1686528,1851,1855,1838
1686538,1853,1854,1838
1686548,1850,1854,1839
1686558,1847,1853,1838
1686568,1851,1854,1840
1686578,1851,1854,1840
1686588,1851,1848,1840
1686598,1847,1855,1839
1686608,1849,1854,1840
1686618,1854,1854,1841
1686628,1850,1851,1843
1686638,1855,1854,1843
1686648,1855,1855,1842
1686658,1856,1855,1841
1686668,1855,1852,1845
1686678,1854,1853,1847
1686688,1856,1854,1845
1686698,1855,1856,1848
1686708,1857,1855,1851
1686718,1858,1859,1851
1686728,1865,1861,1856
1686738,1872,1862,1862
1686748,1872,1868,1871
1686758,1882,1867,1877
1686768,1888,1872,1883
1686778,1894,1873,1888
1686788,1898,1875,1890
1686798,1902,1875,1895
1686808,1904,1875,1898
1686818,1905,1878,1895
1686828,1907,1877,1898
1686838,1905,1878,1894
1686848,1902,1874,1888
1686858,1904,1874,1890
1686868,1899,1872,1885
1686878,1895,1871,1882
1686888,1890,1872,1879
1686898,1886,1870,1873
1686908,1883,1869,1872
1686918,1879,1865,1870
1686928,1875,1862,1870
1686938,1872,1862,1863
1686948,1867,1861,1862
1686958,1869,1859,1861
1686968,1865,1857,1859
1686978,1863,1856,1857
1686988,1862,1858,1855
1686998,1862,1856,1858
1687008,1857,1857,1855
1687018,1859,1855,1855
1687028,1859,1855,1858
1687038,1858,1854,1856
1687048,1861,1855,1854
1687058,1858,1854,1857
1687068,1857,1857,1858
1687078,1862,1853,1859
1687088,1859,1857,1859
1687098,1861,1856,1858
1687108,1863,1856,1859
1687118,1861,1855,1856
1687128,1863,1855,1857
1687138,1863,1857,1855
1687148,1859,1858,1856
1687158,1860,1856,1857
1687168,1858,1855,1854
1687178,1857,1856,1854
1687188,1858,1855,1855
1687198,1859,1856,1855
1687208,1858,1855,1852
1687218,1858,1855,1847
1687228,1857,1855,1849
1687238,1856,1852,1850
1687248,1858,1853,1855
1687258,1856,1854,1853
1687268,1857,1852,1851
1687278,1854,1856,1851
1687288,1856,1853,1847
1687298,1857,1855,1852
1687308,1857,1850,1854
1687318,1858,1854,1853
1687328,1859,1855,1851
1687338,1858,1854,1854
1687348,1859,1855,1849
1687358,1857,1855,1854
1687368,1860,1855,1856
1687378,1859,1853,1856
1687388,1865,1856,1856
1687398,1869,1856,1861
1687408,1870,1858,1863
1687418,1873,1865,1872
1687428,1883,1869,1873
1687438,1893,1871,1882
1687448,1899,1872,1891
1687458,1909,1874,1897
1687468,1917,1877,1902
1687478,1919,1878,1902
1687488,1921,1879,1905
1687498,1923,1885,1906
1687508,1923,1883,1906
1687518,1922,1882,1904
1687528,1919,1879,1904
1687538,1914,1879,1899
1687548,1909,1879,1898
1687558,1904,1872,1893
1687568,1902,1872,1893
1687578,1894,1872,1885
1687588,1888,1867,1879
1687598,1882,1867,1875
1687608,1875,1863,1873
1687618,1872,1865,1871
1687628,1867,1857,1871
1687638,1863,1859,1863
1687648,1859,1856,1858
1687658,1856,1857,1856
1687668,1856,1854,1853
1687678,1853,1854,1855
1687688,1854,1853,1855
1687698,1853,1852,1855
1687708,1854,1854,1852
1687718,1854,1857,1854
1687728,1857,1854,1854
1687738,1858,1856,1856
1687748,1862,1855,1856
1687758,1863,1851,1853
1687768,1865,1854,1856
1687778,1863,1856,1856
1687788,1865,1856,1853
1687798,1862,1857,1856
1687808,1862,1854,1851
1687818,1858,1855,1855
1687828,1859,1855,1856
1687838,1857,1854,1854
1687848,1858,1853,1850
1687858,1856,1853,1851
1687868,1857,1853,1847
1687878,1854,1855,1852
1687888,1851,1853,1846
1687898,1851,1850,1846
1687908,1846,1853,1845
1687918,1842,1850,1846
1687928,1845,1851,1844
1687938,1840,1851,1841
1687948,1840,1853,1841
1687958,1840,1850,1841
1687968,1839,1850,1840
1687978,1840,1850,1840
1687988,1839,1851,1838
1687998,1835,1850,1836
1688008,1839,1849,1835
1688018,1840,1851,1837
1688028,1840,1851,1839
1688038,1841,1850,1839
1688048,1840,1851,1839
1688058,1845,1850,1838
1688068,1845,1853,1840
1688078,1850,1856,1843
1688088,1857,1857,1844
1688098,1867,1858,1856
1688108,1871,1862,1858
1688118,1879,1868,1872
1688128,1887,1873,1877
1688138,1895,1876,1882
1688148,1904,1878,1891
1688158,1907,1881,1896
1688168,1911,1883,1900
1688178,1917,1887,1903
1688188,1919,1886,1903
1688198,1919,1882,1904
1688208,1920,1883,1904
1688218,1919,1877,1902
1688228,1918,1881,1901
1688238,1914,1873,1898
1688248,1908,1875,1894
1688258,1904,1873,1895
1688268,1901,1872,1887
1688278,1898,1869,1887
1688288,1889,1866,1879
1688298,1884,1865,1876
1688308,1878,1862,1872
1688318,1870,1859,1870
1688328,1865,1857,1863
1688338,1861,1855,1857
1688348,1858,1854,1856
1688358,1853,1853,1851
1688368,1849,1851,1847
1688378,1847,1851,1846
1688388,1846,1851,1844
1688398,1847,1852,1841
1688408,1851,1854,1843
1688418,1853,1851,1844
1688428,1853,1850,1845
1688438,1856,1853,1845
1688448,1857,1857,1850
1688458,1861,1857,1856
1688468,1863,1856,1856
1688478,1865,1855,1858
1688488,1871,1856,1857
1688498,1870,1856,1862
1688508,1867,1856,1860
1688518,1869,1857,1859
1688528,1863,1855,1859
1688538,1866,1854,1861
1688548,1863,1853,1858
1688558,1857,1854,1858
1688568,1856,1850,1855
1688578,1856,1847,1854
1688588,1854,1853,1849
1688598,1852,1843,1849
1688608,1851,1853,1843
1688618,1847,1850,1845
1688628,1846,1851,1842
1688638,1851,1851,1842
1688648,1849,1852,1840
1688658,1847,1851,1846
1688668,1850,1849,1840
1688678,1853,1850,1845
1688688,1853,1854,1842
1688698,1855,1851,1844
1688708,1856,1852,1845
1688718,1857,1853,1851
1688728,1857,1846,1847
1688738,1859,1854,1851
1688748,1864,1853,1847
1688758,1863,1860,1856
1688768,1867,1857,1856
1688778,1871,1858,1861
1688788,1873,1862,1867
1688798,1882,1869,1872
1688808,1887,1872,1879
1688818,1901,1873,1890
1688828,1908,1878,1893
1688838,1911,1878,1903
1688848,1916,1878,1902
1688858,1920,1882,1904
1688868,1923,1882,1902
1688878,1921,1883,1903
1688888,1921,1881,1904
1688898,1918,1878,1900
1688908,1910,1872,1898
1688918,1911,1874,1891
1688928,1906,1872,1890
1688938,1902,1872,1883
1688948,1901,1868,1878
1688958,1893,1871,1878
1688968,1887,1867,1873
1688978,1880,1862,1871
1688988,1878,1860,1867
1688998,1872,1857,1863
1689008,1871,1855,1862
1689018,1865,1856,1859
1689028,1861,1854,1854
1689038,1857,1852,1854
1689048,1855,1854,1855
1689058,1855,1850,1849
1689068,1854,1853,1849
1689078,1851,1847,1851
1689088,1854,1851,1853
1689098,1857,1850,1854
1689108,1860,1853,1854
1689118,1863,1856,1854
1689128,1865,1854,1856
1689138,1870,1857,1856
1689148,1868,1857,1859
1689158,1872,1856,1858
1689168,1873,1857,1861
1689178,1871,1856,1863
1689188,1872,1855,1863
1689198,1872,1856,1862
1689208,1870,1854,1857
1689218,1870,1855,1859
1689228,1871,1854,1857
1689238,1865,1851,1858
1689248,1862,1851,1856
1689258,1858,1851,1856
1689268,1859,1854,1856
1689278,1856,1853,1855
1689288,1856,1846,1851
1689298,1856,1850,1853
1689308,1854,1849,1853
1689318,1855,1850,1854
1689328,1853,1849,1853
1689338,1856,1850,1851
1689348,1855,1850,1853
1689358,1855,1854,1851
1689368,1856,1851,1853
1689378,1856,1851,1852
1689388,1855,1853,1851
1689398,1859,1854,1851
1689408,1856,1850,1851
1689418,1857,1847,1854
1689428,1856,1853,1855
1689438,1857,1853,1853
1689448,1856,1851,1854
1689458,1859,1852,1856
1689468,1865,1855,1861
1689478,1867,1857,1865
1689488,1872,1859,1870
1689498,1875,1862,1876
1689508,1882,1871,1885
1689518,1893,1872,1891
1689528,1901,1875,1897
1689538,1906,1875,1904
1689548,1909,1879,1904
1689558,1917,1881,1906
1689568,1919,1886,1906
1689578,1917,1881,1904
1689588,1915,1883,1905
1689598,1911,1878,1904
1689608,1909,1879,1900
1689618,1904,1875,1893
1689628,1902,1872,1885
1689638,1899,1872,1886
1689648,1894,1871,1877
1689658,1891,1867,1879
1689668,1885,1865,1873
1689678,1879,1863,1870
1689688,1876,1859,1865
1689698,1872,1860,1863
1689708,1865,1854,1857
1689718,1867,1854,1856
1689728,1859,1854,1854
1689738,1856,1852,1850
1689748,1854,1849,1847
1689758,1851,1851,1847
1689768,1851,1850,1849
1689778,1847,1850,1843
1689788,1847,1847,1845
1689798,1850,1850,1844
1689808,1849,1850,1844
1689818,1847,1850,1846
1689828,1850,1851,1842
1689838,1845,1849,1840
1689848,1847,1852,1845
1689858,1848,1850,1846
1689868,1846,1851,1841
1689878,1847,1851,1842
1689888,1847,1854,1841
1689898,1846,1849,1842
1689908,1852,1850,1842
1689918,1845,1853,1840
1689928,1849,1851,1842
1689938,1847,1847,1841
1689948,1845,1853,1840
1689958,1851,1850,1842
1689968,1851,1847,1843
1689978,1851,1852,1843
1689988,1850,1853,1843
1689998,1853,1850,1842
1690008,1851,1846,1843
1690018,1852,1851,1845
1690028,1847,1850,1847
1690038,1855,1847,1843
1690048,1853,1853,1845
1690058,1856,1853,1845
1690068,1854,1853,1847
1690078,1855,1849,1849
1690088,1856,1851,1847
1690098,1857,1853,1845
1690108,1856,1851,1850
1690118,1858,1849,1849
1690128,1857,1851,1850
1690138,1855,1851,1846
1690148,1859,1851,1850
1690158,1857,1853,1854
1690168,1866,1855,1857
1690178,1871,1858,1868
1690188,1872,1857,1869
1690198,1882,1865,1873
1690208,1888,1872,1882
1690218,1901,1872,1889
1690228,1904,1874,1899
1690238,1907,1878,1903
1690248,1911,1881,1904
1690258,1919,1883,1903
1690268,1920,1885,1905
1690278,1920,1885,1904
1690288,1918,1881,1903
1690298,1915,1883,1898
1690308,1914,1879,1894
1690318,1915,1877,1891
1690328,1907,1873,1890
1690338,1904,1872,1885
1690348,1903,1872,1882
1690358,1899,1869,1875
1690368,1894,1868,1872
1690378,1887,1861,1872
1690388,1883,1859,1866
1690398,1878,1858,1865
1690408,1874,1855,1862
1690418,1871,1854,1856
1690428,1871,1856,1856
1690438,1866,1853,1853
1690448,1861,1855,1851
1690458,1858,1854,1852
1690468,1859,1850,1850
1690478,1857,1853,1848
1690488,1856,1853,1850
1690498,1856,1851,1849
1690508,1855,1853,1848
1690518,1856,1853,1846
1690528,1856,1854,1849
1690538,1856,1855,1847
1690548,1856,1856,1846
1690558,1855,1851,1845
1690568,1854,1855,1847
1690578,1852,1854,1846
1690588,1849,1855,1843
1690598,1852,1854,1846
1690608,1849,1853,1846
1690618,1850,1852,1844
1690628,1850,1854,1843
1690638,1849,1852,1843
1690648,1850,1853,1844
1690658,1847,1852,1843
1690668,1851,1854,1843
1690678,1853,1851,1843
1690688,1855,1851,1843
1690698,1851,1850,1841
1690708,1853,1851,1845
1690718,1853,1853,1846
1690728,1853,1854,1847
1690738,1853,1851,1847
1690748,1855,1852,1850
1690758,1853,1855,1847
1690768,1854,1853,1849
1690778,1857,1852,1849
1690788,1851,1853,1849
1690798,1856,1855,1851
1690808,1858,1851,1852
1690818,1857,1851,1850
1690828,1858,1851,1854
1690838,1861,1851,1853
1690848,1865,1856,1857
1690858,1869,1857,1863
1690868,1872,1862,1870
1690878,1879,1866,1875
1690888,1891,1872,1885
1690898,1898,1872,1890
1690908,1903,1873,1895
1690918,1907,1879,1902
1690928,1911,1878,1904
1690938,1915,1883,1908
1690948,1918,1883,1906
1690958,1915,1883,1904
1690968,1915,1878,1904
1690978,1911,1879,1898
1690988,1910,1876,1898
1690998,1907,1874,1890
1691008,1902,1872,1889
1691018,1903,1872,1884
1691028,1894,1871,1879
1691038,1892,1868,1877
1691048,1887,1865,1872
1691058,1882,1863,1870
1691068,1878,1860,1868
1691078,1873,1859,1863
1691088,1872,1855,1859
1691098,1865,1855,1858
1691108,1859,1853,1854
1691118,1856,1850,1851
1691128,1850,1853,1847
1691138,1851,1854,1843
1691148,1847,1851,1843
1691158,1846,1849,1847
1691168,1845,1846,1843
1691178,1845,1850,1845
1691188,1849,1850,1847
1691198,1850,1849,1846
1691208,1851,1850,1849
1691218,1851,1852,1851
1691228,1854,1855,1851
1691238,1853,1853,1848
1691248,1856,1854,1853
1691258,1856,1854,1850
1691268,1856,1854,1852
1691278,1856,1850,1853
1691288,1856,1849,1852
1691298,1853,1853,1846
1691308,1855,1850,1849
1691318,1858,1851,1847
1691328,1856,1855,1849
1691338,1855,1852,1851
1691348,1857,1849,1847
1691358,1854,1851,1849
1691368,1852,1847,1849
1691378,1850,1850,1847
1691388,1845,1845,1845
1691398,1846,1847,1849
1691408,1847,1847,1843
1691418,1845,1847,1840
1691428,1843,1846,1840
1691438,1843,1851,1845
1691448,1845,1851,1843
1691458,1843,1847,1841
1691468,1840,1847,1840
1691478,1840,1850,1840
1691488,1842,1847,1840
1691498,1842,1847,1840
1691508,1844,1850,1842
1691518,1846,1851,1841
1691528,1846,1852,1843
1691538,1845,1849,1843
1691548,1847,1852,1846
1691558,1851,1855,1851
1691568,1855,1855,1854
1691578,1862,1859,1860
1691588,1869,1861,1867
1691598,1873,1872,1873
1691608,1885,1871,1881
1691618,1892,1875,1891
1691628,1897,1875,1898
1691638,1904,1883,1898
1691648,1908,1883,1903
1691658,1910,1883,1904
1691668,1910,1886,1898
1691678,1910,1884,1899
1691688,1905,1883,1895
1691698,1905,1875,1889
1691708,1904,1874,1886
1691718,1899,1874,1881
1691728,1895,1871,1877
1691738,1891,1869,1873
1691748,1886,1867,1870
1691758,1882,1866,1866
1691768,1875,1866,1865
1691778,1875,1862,1864
1691788,1872,1861,1861
1691798,1872,1857,1858
1691808,1866,1857,1854
1691818,1867,1855,1854
1691828,1866,1855,1853
1691838,1863,1856,1856
1691848,1862,1863,1855
1691858,1863,1854,1854
1691868,1863,1853,1855
1691878,1867,1856,1856
1691888,1867,1856,1858
1691898,1867,1855,1857
1691908,1867,1861,1858
1691918,1871,1852,1861
1691928,1870,1854,1865
1691938,1870,1855,1867
1691948,1869,1854,1861
1691958,1870,1855,1865
1691968,1869,1854,1862
1691978,1863,1851,1862
1691988,1857,1855,1855
1691998,1856,1854,1855
1692008,1849,1846,1849
1692018,1846,1842,1851
1692028,1842,1845,1856
1692038,1840,1847,1842
1692048,1838,1847,1841
1692058,1838,1845,1840
1692068,1839,1844,1840
1692078,1837,1847,1838
1692088,1838,1846,1834
1692098,1837,1847,1838
1692108,1838,1846,1835
1692118,1840,1848,1835
1692128,1840,1852,1835
1692138,1840,1852,1838
1692148,1842,1851,1838
1692158,1845,1853,1841
1692168,1849,1855,1840
1692178,1849,1852,1842
1692188,1852,1853,1850
1692198,1857,1855,1850
1692208,1856,1850,1847
1692218,1861,1854,1851
1692228,1857,1855,1851
1692238,1860,1853,1854
1692248,1861,1851,1856
1692258,1861,1853,1855
1692268,1858,1856,1856
1692278,1858,1853,1858
1692288,1860,1850,1856
1692298,1862,1854,1859
1692308,1858,1854,1858
1692318,1860,1855,1861
1692328,1863,1857,1867
1692338,1872,1858,1872
1692348,1872,1861,1875
1692358,1874,1866,1885
1692368,1886,1869,1890
1692378,1889,1873,1901
1692388,1895,1877,1904
1692398,1902,1881,1906
1692408,1907,1881,1910
1692418,1909,1882,1910
1692428,1918,1885,1909
1692438,1916,1883,1910
1692448,1918,1885,1908
1692458,1915,1881,1905
1692468,1910,1879,1904
1692478,1907,1877,1904
1692488,1907,1873,1899
1692498,1904,1872,1900
1692508,1902,1870,1895
1692518,1898,1869,1894
1692528,1891,1863,1892
1692538,1892,1865,1887
1692548,1887,1865,1881
1692558,1879,1859,1881
1692568,1879,1856,1875
1692578,1874,1857,1874
1692588,1871,1851,1870
1692598,1869,1854,1868
1692608,1867,1853,1869
1692618,1865,1853,1866
1692628,1861,1854,1866
1692638,1861,1850,1862
1692648,1862,1851,1860
1692658,1862,1856,1860
1692668,1858,1854,1859
1692678,1861,1854,1858
1692688,1862,1855,1859
1692698,1864,1856,1859
1692708,1859,1854,1862
1692718,1861,1856,1859
1692728,1859,1854,1857
1692738,1858,1854,1859
1692748,1860,1851,1856
1692758,1860,1855,1857
1692768,1861,1855,1856
1692778,1860,1854,1859
1692788,1862,1851,1855
1692798,1857,1853,1856
1692808,1858,1852,1853
1692818,1859,1853,1854
1692828,1859,1847,1850
1692838,1857,1850,1851
1692848,1858,1853,1852
1692858,1858,1853,1850
1692868,1859,1851,1852
1692878,1860,1853,1847
1692888,1860,1851,1851
1692898,1859,1850,1851
1692908,1859,1853,1847
1692918,1859,1853,1851
1692928,1859,1855,1853
1692938,1859,1852,1846
1692948,1858,1850,1850
1692958,1857,1851,1851
1692968,1855,1851,1850
1692978,1856,1850,1846
1692988,1850,1851,1847
1692998,1850,1849,1847
1693008,1847,1851,1845
1693018,1846,1852,1846
1693028,1844,1851,1846
1693038,1847,1850,1847
1693048,1846,1847,1845
1693058,1843,1849,1845
1693068,1844,1849,1844
1693078,1841,1852,1842
1693088,1845,1851,1845
1693098,1846,1855,1845
1693108,1846,1856,1850
1693118,1853,1858,1855
1693128,1856,1858,1857
1693138,1861,1865,1867
1693148,1872,1871,1872
1693158,1877,1872,1878
1693168,1883,1876,1881
1693178,1890,1882,1889
1693188,1901,1883,1891
1693198,1902,1883,1894
1693208,1904,1885,1894
1693218,1906,1887,1893
1693228,1907,1885,1893
1693238,1911,1883,1894
1693248,1911,1883,1894
1693258,1909,1878,1890
1693268,1908,1872,1890
1693278,1907,1874,1887
1693288,1908,1873,1885
1693298,1905,1867,1882
1693308,1901,1867,1879
1693318,1897,1865,1876
1693328,1891,1862,1873
1693338,1887,1857,1872
1693348,1882,1857,1871
1693358,1874,1854,1867
1693368,1868,1854,1861
1693378,1865,1853,1858
1693388,1857,1850,1855
1693398,1856,1847,1854
1693408,1849,1846,1850
1693418,1851,1850,1852
1693428,1847,1850,1852
1693438,1850,1847,1854
1693448,1850,1850,1853
1693458,1851,1854,1857
1693468,1855,1853,1857
1693478,1853,1855,1862
1693488,1858,1856,1862
1693498,1862,1855,1865
1693508,1862,1855,1866
1693518,1865,1856,1870
1693528,1868,1855,1871
1693538,1871,1858,1872
1693548,1868,1857,1871
1693558,1867,1855,1872
1693568,1867,1853,1871
1693578,1861,1853,1871
1693588,1856,1855,1867
1693598,1855,1854,1866
1693608,1851,1847,1863
1693618,1849,1851,1858
1693628,1847,1851,1854
1693638,1844,1850,1853
1693648,1840,1849,1843
1693658,1840,1849,1843
1693668,1837,1845,1840
1693678,1834,1847,1840
1693688,1831,1846,1835
1693698,1836,1845,1836
1693708,1837,1842,1834
1693718,1839,1847,1830
1693728,1840,1850,1827
1693738,1839,1850,1829
1693748,1840,1847,1833
1693758,1843,1847,1828
1693768,1845,1850,1831
1693778,1847,1851,1833
1693788,1849,1851,1836
1693798,1850,1851,1838
1693808,1851,1851,1839
1693818,1851,1853,1840
1693828,1850,1850,1840
1693838,1853,1852,1840
1693848,1851,1850,1843
1693858,1851,1853,1843
1693868,1850,1853,1841
1693878,1849,1854,1841
1693888,1853,1855,1846
1693898,1855,1856,1852
1693908,1857,1859,1855
1693918,1861,1859,1857
1693928,1870,1867,1867
1693938,1874,1872,1872
1693948,1875,1873,1879
1693958,1886,1877,1887
1693968,1893,1886,1893
1693978,1898,1887,1899
1693988,1904,1888,1898
1693998,1906,1890,1901
1694008,1910,1888,1898
1694018,1913,1887,1895
1694028,1913,1887,1895
1694038,1913,1883,1891
1694048,1911,1878,1886
1694058,1906,1875,1885
1694068,1904,1872,1882
1694078,1902,1872,1878
1694088,1895,1867,1873
1694098,1892,1865,1871
1694108,1886,1861,1867
1694118,1883,1857,1863
1694128,1875,1856,1857
1694138,1872,1854,1857
1694148,1870,1853,1853
1694158,1866,1849,1850
1694168,1859,1849,1843
1694178,1858,1852,1842
1694188,1855,1853,1843
1694198,1857,1851,1843
1694208,1856,1851,1842
1694218,1856,1855,1842
1694228,1857,1856,1846
1694238,1856,1854,1847
1694248,1861,1855,1846
1694258,1861,1855,1847
1694268,1862,1856,1851
1694278,1866,1856,1852
1694288,1863,1856,1852
1694298,1867,1859,1855
1694308,1865,1857,1856
1694318,1867,1857,1855
1694328,1869,1856,1853
1694338,1863,1856,1856
1694348,1866,1856,1856
1694358,1865,1855,1856
1694368,1867,1855,1853
1694378,1867,1854,1856
1694388,1862,1850,1854
1694398,1862,1855,1854
1694408,1865,1851,1854
1694418,1862,1854,1852
1694428,1867,1853,1851
1694438,1869,1853,1852
1694448,1865,1852,1851
1694458,1865,1851,1851
1694468,1865,1855,1855
1694478,1865,1853,1851
1694488,1865,1849,1855
1694498,1860,1851,1855
1694508,1858,1852,1854
1694518,1857,1853,1855
1694528,1855,1854,1855
1694538,1856,1851,1856
1694548,1856,1854,1855
1694558,1854,1851,1857
1694568,1855,1850,1854
1694578,1854,1851,1853
1694588,1856,1854,1854
1694598,1856,1853,1853
1694608,1856,1854,1853
1694618,1856,1851,1855
1694628,1856,1850,1853
1694638,1858,1853,1855
1694648,1859,1854,1855
1694658,1863,1855,1854
1694668,1859,1855,1855
1694678,1867,1853,1856
1694688,1871,1858,1863
1694698,1872,1862,1867
1694708,1877,1863,1875
1694718,1886,1870,1882
1694728,1888,1873,1890
1694738,1898,1877,1899
1694748,1901,1879,1904
1694758,1904,1884,1906
1694768,1907,1885,1910
1694778,1915,1887,1913
1694788,1913,1886,1911
1694798,1911,1885,1908
1694808,1910,1887,1905
1694818,1907,1881,1904
1694828,1905,1877,1899
1694838,1904,1875,1894
1694848,1900,1873,1888
1694858,1897,1872,1887
1694868,1893,1871,1883
1694878,1889,1869,1878
1694888,1889,1866,1872
1694898,1883,1863,1872
1694908,1885,1865,1869
1694918,1879,1863,1867
1694928,1874,1859,1862
1694938,1874,1856,1862
1694948,1872,1856,1857
1694958,1872,1855,1855
1694968,1869,1854,1855
1694978,1862,1853,1854
1694988,1862,1851,1855
1694998,1859,1851,1854
1695008,1861,1853,1855
1695018,1859,1852,1856
1695028,1859,1854,1854
1695038,1858,1853,1854
1695048,1861,1853,1855
1695058,1859,1854,1854
1695068,1856,1856,1854
1695078,1858,1854,1851
1695088,1859,1853,1856
1695098,1861,1856,1853
1695108,1862,1854,1854
1695118,1862,1854,1851
1695128,1862,1848,1854
1695138,1859,1854,1850
1695148,1862,1855,1849
1695158,1862,1855,1849
1695168,1863,1855,1851
1695178,1862,1854,1851
1695188,1860,1855,1846
1695198,1859,1855,1849
1695208,1862,1853,1843
1695218,1859,1851,1846
1695228,1860,1854,1845
1695238,1863,1853,1846
1695248,1858,1858,1847
1695258,1856,1854,1842
1695268,1857,1852,1840
1695278,1858,1851,1840
1695288,1856,1851,1844
1695298,1857,1853,1846
1695308,1855,1851,1846
1695318,1856,1852,1843
1695328,1856,1853,1844
1695338,1855,1851,1846
1695348,1856,1853,1843
1695358,1855,1852,1852
1695368,1855,1854,1846
1695378,1856,1850,1843
1695388,1855,1847,1844
1695398,1857,1853,1845
1695408,1860,1854,1842
1695418,1861,1853,1842
1695428,1863,1854,1840
1695438,1868,1852,1840
1695448,1868,1855,1840
1695458,1866,1855,1840
1695468,1868,1853,1840
1695478,1872,1856,1840
1695488,1873,1857,1850
1695498,1879,1866,1856
1695508,1885,1870,1861
1695518,1893,1869,1872
1695528,1901,1873,1882
1695538,1906,1879,1891
1695548,1914,1883,1895
1695558,1919,1888,1904
1695568,1920,1887,1906
1695578,1920,1887,1904
1695588,1922,1887,1907
1695598,1925,1890,1905
1695608,1920,1883,1904
1695618,1921,1881,1900
1695628,1918,1877,1894
1695638,1915,1876,1889
1695648,1914,1873,1886
1695658,1904,1872,1882
1695668,1899,1869,1875
1695678,1897,1867,1875
1695688,1889,1865,1871
1695698,1884,1863,1871
1695708,1873,1859,1866
1695718,1873,1858,1863
1695728,1872,1858,1861
1695738,1869,1856,1855
1695748,1867,1855,1853
1695758,1861,1851,1853
1695768,1862,1852,1854
1695778,1860,1853,1852
1695788,1858,1853,1852
1695798,1859,1853,1854
1695808,1865,1854,1855
1695818,1863,1853,1853
1695828,1863,1854,1856
1695838,1867,1854,1859
1695848,1869,1856,1862
1695858,1869,1855,1861
1695868,1871,1855,1862
1695878,1872,1856,1862
1695888,1869,1855,1861
1695898,1866,1855,1862
1695908,1867,1855,1861
1695918,1872,1856,1861
1695928,1867,1853,1862
1695938,1865,1853,1858
1695948,1862,1854,1858
1695958,1860,1851,1855
1695968,1860,1853,1857
1695978,1861,1854,1855
1695988,1856,1851,1855
1695998,1855,1850,1854
1696008,1856,1847,1854
1696018,1855,1850,1855
1696028,1855,1850,1852
1696038,1855,1855,1853
1696048,1854,1851,1853
1696058,1855,1853,1854
1696068,1853,1853,1852
1696078,1855,1852,1855
1696088,1855,1847,1853
1696098,1855,1851,1851
1696108,1853,1851,1852
1696118,1856,1853,1852
1696128,1854,1851,1856
1696138,1856,1852,1856
1696148,1856,1853,1856
1696158,1856,1854,1859
1696168,1856,1851,1857
1696178,1856,1855,1857
1696188,1856,1851,1855
1696198,1855,1854,1858
1696208,1855,1847,1858
1696218,1853,1853,1855
1696228,1854,1850,1856
1696238,1853,1851,1858
1696248,1855,1853,1857
1696258,1854,1854,1855
1696268,1855,1853,1860
1696278,1856,1856,1857
1696288,1857,1856,1869
1696298,1861,1861,1872
1696308,1869,1868,1875
1696318,1876,1872,1886
1696328,1883,1874,1893
1696338,1889,1875,1899
1696348,1897,1883,1904
1696358,1904,1886,1909
1696368,1907,1885,1907
1696378,1909,1889,1911
1696388,1915,1889,1911
1696398,1919,1887,1906
1696408,1915,1885,1904
1696418,1909,1881,1899
1696428,1908,1882,1898
1696438,1904,1873,1889
1696448,1904,1872,1887
1696458,1903,1872,1882
1696468,1895,1872,1879
1696478,1891,1867,1877
1696488,1888,1867,1872
1696498,1883,1860,1872
1696508,1879,1858,1867
1696518,1872,1857,1867
1696528,1870,1859,1859
1696538,1867,1853,1856
1696548,1862,1854,1856
1696558,1862,1853,1854
1696568,1857,1851,1847
1696578,1856,1851,1850
1696588,1855,1851,1849
1696598,1857,1850,1850
1696608,1856,1851,1847
1696618,1857,1851,1846
1696628,1855,1853,1851
1696638,1858,1853,1849
1696648,1856,1853,1850
1696658,1858,1856,1851
1696668,1856,1853,1852
1696678,1856,1855,1850
1696688,1856,1855,1850
1696698,1855,1854,1851
1696708,1856,1851,1849
1696718,1856,1853,1849
1696728,1852,1847,1845
1696738,1853,1849,1847
1696748,1851,1851,1843
1696758,1852,1853,1842
1696768,1852,1851,1845
1696778,1856,1849,1845
1696788,1854,1851,1842
1696798,1855,1852,1841
1696808,1856,1854,1852
1696818,1856,1853,1847
1696828,1857,1853,1847
1696838,1858,1851,1849
1696848,1861,1851,1850
1696858,1859,1849,1849
1696868,1853,1855,1850
1696878,1860,1851,1851
1696888,1857,1854,1851
1696898,1855,1850,1853
1696908,1856,1851,1852
1696918,1857,1850,1849
1696928,1855,1849,1849
1696938,1855,1847,1848
1696948,1854,1851,1847
1696958,1855,1853,1851
1696968,1855,1851,1847
1696978,1856,1850,1849
1696988,1856,1851,1847
1696998,1857,1853,1851
1697008,1857,1854,1851
1697018,1859,1855,1856
1697028,1869,1857,1863
1697038,1871,1858,1872
1697048,1873,1861,1877
1697058,1883,1867,1887
1697068,1891,1872,1895
1697078,1901,1873,1902
1697088,1905,1878,1907
1697098,1913,1878,1914
1697108,1920,1877,1917
1697118,1921,1882,1919
1697128,1925,1879,1915
1697138,1925,1881,1911
1697148,1923,1877,1906
1697158,1919,1876,1904
1697168,1917,1875,1904
1697178,1912,1872,1895
1697188,1908,1872,1887
1697198,1906,1871,1888
1697208,1904,1869,1883
1697218,1902,1868,1877
1697228,1895,1865,1873
1697238,1894,1862,1872
1697248,1886,1860,1867
1697258,1881,1862,1861
1697268,1873,1858,1861
1697278,1872,1857,1856
1697288,1870,1856,1854
1697298,1863,1857,1852
1697308,1860,1854,1852
1697318,1856,1855,1850
1697328,1856,1853,1849
1697338,1856,1856,1846
1697348,1854,1856,1847
1697358,1856,1855,1847
1697368,1855,1856,1853
1697378,1856,1856,1851
1697388,1855,1854,1852
1697398,1855,1855,1854
1697408,1855,1855,1854
1697418,1857,1853,1853
1697428,1855,1855,1853
1697438,1857,1854,1854
1697448,1854,1854,1854
1697458,1856,1854,1853
1697468,1855,1849,1847
1697478,1855,1855,1847
1697488,1853,1853,1843
1697498,1858,1852,1844
1697508,1851,1851,1843
1697518,1849,1849,1841
1697528,1850,1851,1840
1697538,1850,1853,1840
1697548,1849,1849,1840
1697558,1849,1850,1840
1697568,1851,1851,1840
1697578,1847,1849,1840
1697588,1846,1847,1840
1697598,1845,1850,1840
1697608,1849,1851,1840
1697618,1849,1850,1842
1697628,1850,1854,1841
1697638,1850,1853,1842
1697648,1850,1853,1842
1697658,1851,1852,1843
1697668,1853,1851,1842
1697678,1853,1855,1843
1697688,1854,1854,1843
1697698,1857,1850,1847
1697708,1858,1855,1853
1697718,1863,1860,1855
1697728,1867,1863,1866
1697738,1874,1868,1870
1697748,1881,1870,1879
1697758,1886,1875,1888
1697768,1895,1877,1893
1697778,1904,1882,1904
1697788,1907,1883,1907
1697798,1914,1887,1909
1697808,1914,1888,1910
1697818,1917,1887,1911
1697828,1915,1889,1906
1697838,1914,1884,1906
1697848,1914,1886,1904
1697858,1905,1881,1901
1697868,1903,1878,1895
1697878,1904,1877,1890
1697888,1901,1872,1886
1697898,1897,1872,1881
1697908,1893,1867,1878
1697918,1892,1869,1877
1697928,1885,1869,1872
1697938,1882,1863,1869
1697948,1877,1862,1868
1697958,1872,1856,1859
1697968,1872,1856,1856
1697978,1868,1853,1854
1697988,1861,1855,1855
1697998,1859,1854,1851
1698008,1856,1851,1849
1698018,1857,1852,1846
1698028,1853,1849,1850
1698038,1851,1849,1851
1698048,1854,1850,1851
1698058,1850,1853,1850
1698068,1853,1854,1853
1698078,1850,1854,1851
1698088,1850,1852,1854
1698098,1853,1853,1850
1698108,1851,1852,1853
1698118,1854,1851,1853
1698128,1854,1854,1850
1698138,1853,1853,1847
1698148,1850,1854,1847
1698158,1853,1853,1846
1698168,1851,1853,1842
1698178,1847,1851,1840
1698188,1853,1850,1842
1698198,1849,1851,1842
1698208,1852,1854,1840
1698218,1853,1853,1840
1698228,1854,1852,1840
1698238,1853,1850,1837
1698248,1856,1851,1840
1698258,1854,1853,1840
1698268,1855,1852,1841
1698278,1856,1852,1842
1698288,1858,1853,1845
1698298,1858,1854,1843
1698308,1859,1846,1847
1698318,1856,1851,1847
1698328,1858,1851,1850
1698338,1859,1850,1851
1698348,1856,1851,1850
1698358,1856,1852,1851
1698368,1856,1849,1851
1698378,1855,1852,1851
1698388,1855,1851,1851
1698398,1857,1849,1849
1698408,1856,1854,1850
1698418,1856,1854,1855
1698428,1862,1853,1855
1698438,1863,1858,1861
1698448,1871,1860,1870
1698458,1872,1869,1876
1698468,1883,1872,1887
1698478,1891,1872,1891
1698488,1902,1878,1900
1698498,1905,1888,1904
1698508,1913,1890,1917
1698518,1921,1889,1918
1698528,1927,1893,1920
1698538,1930,1894,1919
1698548,1933,1891,1920
1698558,1933,1893,1916
1698568,1931,1886,1917
1698578,1927,1886,1911
1698588,1923,1879,1908
1698598,1919,1875,1901
1698608,1922,1876,1897
1698618,1911,1873,1895
1698628,1906,1871,1891
1698638,1902,1870,1887
1698648,1899,1867,1883
1698658,1894,1862,1876
1698668,1886,1860,1872
1698678,1882,1861,1870
1698688,1874,1855,1867
1698698,1874,1856,1865
1698708,1871,1851,1859
1698718,1863,1855,1856
1698728,1863,1850,1855
1698738,1861,1849,1854
1698748,1859,1851,1854
1698758,1857,1853,1855
1698768,1859,1853,1854
1698778,1859,1853,1854
1698788,1861,1852,1852
1698798,1863,1853,1853
1698808,1863,1856,1856
1698818,1863,1855,1857
1698828,1869,1857,1855
1698838,1866,1855,1858
1698848,1869,1855,1856
1698858,1870,1857,1856
1698868,1866,1854,1856
1698878,1866,1856,1857
1698888,1867,1855,1857
1698898,1869,1854,1856
1698908,1866,1854,1854
1698918,1862,1853,1854
1698928,1858,1851,1854
1698938,1855,1854,1851
1698948,1858,1850,1853
1698958,1859,1852,1849
1698968,1857,1851,1849
1698978,1855,1851,1843
1698988,1855,1851,1843
1698998,1852,1850,1842
1699008,1853,1852,1843
1699018,1853,1849,1846
1699028,1849,1847,1843
1699038,1853,1847,1842
1699048,1851,1851,1842
1699058,1855,1851,1843
1699068,1854,1852,1846
1699078,1854,1853,1845
1699088,1855,1850,1848
1699098,1857,1851,1850
1699108,1856,1852,1847
1699118,1856,1853,1852
1699128,1856,1851,1853
1699138,1856,1851,1853
1699148,1861,1854,1853
1699158,1857,1853,1853
1699168,1859,1853,1855
1699178,1864,1855,1857
1699188,1871,1859,1859
1699198,1872,1861,1870
