timestamp_ms_device,ppg_finger1,ppg_finger2,ppg_finger3
776087,1892,1878,1894
776096,1891,1877,1890
776106,1888,1875,1888
776116,1883,1872,1885
776126,1882,1872,1882
776136,1875,1869,1876
776146,1872,1863,1876
776156,1871,1865,1872
776166,1871,1861,1869
776176,1862,1859,1865
776186,1862,1856,1861
776196,1862,1855,1857
776206,1862,1855,1857
776216,1858,1853,1856
776226,1859,1853,1853
776236,1858,1853,1854
776246,1859,1853,1853
776256,1862,1855,1851
776266,1861,1856,1851
776276,1863,1856,1855
776286,1867,1856,1854
776296,1869,1857,1857
776306,1870,1855,1856
776316,1872,1856,1856
776326,1866,1858,1856
776336,1868,1857,1855
776346,1870,1855,1857
776356,1870,1856,1856
776366,1867,1858,1856
776376,1869,1856,1853
776386,1870,1855,1856
776396,1866,1851,1853
776406,1865,1855,1854
776416,1863,1853,1853
776426,1861,1853,1853
776436,1861,1850,1853
776446,1861,1854,1851
776456,1860,1854,1851
776466,1861,1853,1850
776476,1862,1847,1852
776486,1861,1853,1847
776496,1858,1847,1847
776506,1862,1847,1846
776516,1861,1851,1850
776526,1859,1850,1849
776536,1857,1849,1847
776546,1861,1847,1847
776556,1858,1851,1847
776566,1862,1853,1845
776576,1861,1850,1850
776586,1865,1853,1846
776596,1867,1853,1856
776606,1867,1856,1855
776616,1872,1858,1857
776626,1875,1863,1866
776636,1881,1867,1866
776646,1883,1871,1872
776656,1889,1872,1875
776666,1895,1875,1879
776676,1900,1877,1886
776686,1901,1880,1890
776696,1903,1881,1893
776706,1904,1877,1895
776716,1904,1879,1894
776726,1904,1878,1893
776736,1902,1878,1893
776746,1901,1877,1891
776756,1894,1872,1888
776766,1891,1872,1885
776776,1888,1872,1883
776786,1886,1869,1879
776796,1878,1868,1875
776806,1878,1862,1872
776816,1872,1859,1872
776826,1872,1861,1870
776836,1869,1859,1865
776846,1865,1856,1861
776856,1865,1856,1857
776866,1858,1852,1857
776876,1858,1851,1852
776886,1858,1851,1850
776896,1856,1853,1845
776906,1856,1850,1846
776916,1855,1847,1849
776926,1856,1852,1847
776936,1857,1850,1847
776946,1857,1855,1850
776956,1859,1853,1846
776966,1864,1855,1847
776976,1863,1855,1851
776986,1863,1856,1850
776996,1865,1855,1850
777006,1867,1855,1851
777016,1868,1855,1853
777026,1869,1857,1854
777036,1870,1855,1851
777046,1869,1854,1853
777056,1865,1856,1854
777066,1866,1855,1851
777076,1867,1853,1854
777086,1863,1855,1852
777096,1865,1853,1849
777106,1863,1853,1850
777116,1865,1851,1850
777126,1863,1855,1849
777136,1866,1850,1847
777146,1863,1854,1846
777156,1863,1850,1846
777166,1859,1850,1847
777176,1859,1847,1844
777186,1858,1846,1844
777196,1858,1849,1845
777206,1862,1847,1844
777216,1863,1853,1843
777226,1862,1850,1846
777236,1863,1856,1846
777246,1868,1855,1847
777256,1871,1857,1854
777266,1872,1859,1858
777276,1875,1863,1862
777286,1882,1866,1867
777296,1887,1870,1871
777306,1895,1870,1874
777316,1899,1873,1878
777326,1900,1872,1884
777336,1903,1875,1887
777346,1903,1873,1888
777356,1902,1873,1888
777366,1904,1875,1888
777376,1902,1876,1889
777386,1901,1874,1884
777396,1895,1873,1885
777406,1892,1872,1879
777416,1891,1869,1875
777426,1886,1868,1872
777436,1879,1865,1872
777446,1875,1862,1869
777456,1872,1861,1863
777466,1872,1858,1861
777476,1871,1856,1860
777486,1862,1856,1858
777496,1861,1855,1856
777506,1861,1851,1855
777516,1857,1851,1847
777526,1858,1851,1847
777536,1857,1851,1847
777546,1861,1850,1845
777556,1860,1853,1846
777566,1860,1855,1847
777576,1862,1852,1847
777586,1863,1856,1853
777596,1868,1853,1851
777606,1865,1856,1851
777616,1869,1855,1851
777626,1869,1856,1854
777636,1869,1856,1850
777646,1868,1851,1856
777656,1871,1853,1856
777666,1871,1856,1855
777676,1870,1855,1855
777686,1865,1852,1856
777696,1866,1855,1855
777706,1865,1853,1851
777716,1862,1853,1851
777726,1862,1853,1849
777736,1862,1850,1850
777746,1863,1851,1850
777756,1862,1851,1850
777766,1859,1851,1849
777776,1861,1853,1845
777786,1861,1851,1853
777796,1862,1852,1845
777806,1859,1850,1847
777816,1863,1853,1848
777826,1862,1853,1851
777836,1858,1851,1846
777846,1861,1850,1845
777856,1865,1853,1846
777866,1862,1853,1848
777876,1862,1850,1849
777886,1862,1851,1851
777896,1861,1853,1850
777906,1860,1853,1852
777916,1858,1853,1851
777926,1863,1854,1847
777936,1863,1855,1855
777946,1865,1857,1853
777956,1869,1859,1855
777966,1872,1859,1856
777976,1874,1863,1861
777986,1882,1869,1869
777996,1888,1871,1872
778006,1893,1872,1876
778016,1903,1872,1881
778026,1904,1873,1884
778036,1907,1877,1889
778046,1911,1876,1889
778056,1906,1876,1893
778066,1911,1876,1895
778076,1911,1878,1893
778086,1905,1875,1893
778096,1907,1879,1895
778106,1904,1874,1894
778116,1903,1872,1887
778126,1902,1872,1887
778136,1895,1863,1883
778146,1889,1871,1877
778156,1887,1867,1878
778166,1879,1866,1875
778176,1874,1866,1872
778186,1870,1862,1870
778196,1869,1861,1863
778206,1867,1859,1858
778216,1865,1858,1862
778226,1861,1858,1859
778236,1859,1854,1855
778246,1856,1851,1849
778256,1859,1849,1854
778266,1858,1856,1856
778276,1857,1854,1856
778286,1858,1854,1856
778296,1858,1855,1857
778306,1864,1856,1858
778316,1861,1857,1856
778326,1862,1857,1858
778336,1862,1855,1858
778346,1863,1856,1857
778356,1862,1856,1858
778366,1861,1858,1858
778376,1865,1857,1858
778386,1865,1858,1857
778396,1865,1856,1856
778406,1866,1857,1858
778416,1864,1856,1854
778426,1861,1856,1856
778436,1860,1856,1856
778446,1859,1856,1855
778456,1858,1855,1855
778466,1857,1856,1856
778476,1857,1856,1854
778486,1855,1854,1853
778496,1856,1856,1850
778506,1854,1854,1851
778516,1855,1856,1853
778526,1855,1856,1854
778536,1856,1856,1852
778546,1856,1854,1854
778556,1857,1855,1851
778566,1859,1856,1853
778576,1856,1855,1855
778586,1861,1856,1851
778596,1858,1855,1850
778606,1859,1854,1853
778616,1859,1854,1855
778626,1861,1854,1854
778636,1859,1854,1856
778646,1861,1852,1853
778656,1862,1856,1849
778666,1861,1851,1851
778676,1861,1853,1852
778686,1863,1851,1853
778696,1866,1856,1855
778706,1869,1858,1856
778716,1871,1860,1858
778726,1872,1863,1865
778736,1881,1870,1869
778746,1886,1872,1872
778756,1893,1872,1873
778766,1901,1872,1879
778776,1904,1875,1886
778786,1906,1873,1888
778796,1906,1878,1889
778806,1911,1882,1893
778816,1910,1878,1893
778826,1909,1879,1891
778836,1906,1882,1892
778846,1907,1879,1892
778856,1904,1878,1891
778866,1903,1875,1889
778876,1898,1875,1884
778886,1895,1872,1883
778896,1888,1872,1877
778906,1884,1870,1876
778916,1878,1866,1876
778926,1873,1866,1871
778936,1871,1861,1869
778946,1869,1860,1866
778956,1866,1860,1865
778966,1862,1856,1862
778976,1857,1857,1857
778986,1858,1857,1857
778996,1857,1856,1855
779006,1856,1855,1855
779016,1855,1855,1857
779026,1856,1851,1855
779036,1856,1855,1854
779046,1858,1856,1856
779056,1861,1856,1856
779066,1862,1855,1855
779076,1863,1857,1858
779086,1866,1856,1855
779096,1867,1857,1859
779106,1864,1856,1859
779116,1867,1857,1859
779126,1866,1855,1856
779136,1866,1858,1859
779146,1863,1856,1857
779156,1863,1856,1857
779166,1861,1858,1856
779176,1863,1856,1852
779186,1859,1854,1857
779196,1863,1855,1854
779206,1864,1853,1854
779216,1861,1856,1852
779226,1857,1853,1851
779236,1861,1856,1851
779246,1859,1854,1853
779256,1857,1853,1850
779266,1857,1853,1846
779276,1856,1852,1851
779286,1858,1855,1849
779296,1856,1851,1850
779306,1856,1852,1847
779316,1858,1853,1850
779326,1857,1854,1851
779336,1856,1852,1848
779346,1858,1855,1853
779356,1858,1852,1851
779366,1858,1853,1851
779376,1859,1854,1852
779386,1861,1855,1852
779396,1859,1857,1853
779406,1857,1853,1854
779416,1859,1855,1851
779426,1857,1855,1851
779436,1856,1855,1853
779446,1855,1853,1847
779456,1857,1851,1851
779466,1859,1855,1851
779476,1857,1855,1854
779486,1859,1856,1855
779496,1862,1859,1855
779506,1867,1859,1857
779516,1872,1863,1862
779526,1877,1870,1865
779536,1884,1871,1872
779546,1888,1873,1877
779556,1895,1877,1877
779566,1902,1877,1884
779576,1903,1881,1888
779586,1904,1887,1889
779596,1906,1882,1893
779606,1906,1885,1897
779616,1906,1885,1897
779626,1904,1879,1897
779636,1904,1879,1894
779646,1902,1878,1890
779656,1897,1876,1889
779666,1895,1876,1885
779676,1888,1873,1887
779686,1879,1872,1882
779696,1882,1869,1879
779706,1874,1864,1875
779716,1872,1863,1872
779726,1871,1862,1872
779736,1865,1859,1869
779746,1859,1858,1866
779756,1857,1858,1859
779766,1858,1856,1859
779776,1856,1855,1857
779786,1855,1854,1856
779796,1855,1854,1856
779806,1854,1854,1855
779816,1856,1855,1856
779826,1858,1855,1855
779836,1861,1855,1855
779846,1861,1856,1854
779856,1863,1857,1856
779866,1865,1856,1857
779876,1866,1858,1856
779886,1866,1856,1862
779896,1868,1857,1858
779906,1867,1859,1856
779916,1867,1859,1858
779926,1868,1855,1858
779936,1867,1857,1859
779946,1866,1858,1859
779956,1866,1856,1856
779966,1863,1856,1856
779976,1862,1853,1856
779986,1859,1856,1858
779996,1858,1853,1852
780006,1860,1854,1853
780016,1859,1853,1855
780026,1858,1853,1854
780036,1858,1853,1852
780046,1857,1851,1851
780056,1856,1851,1850
780066,1857,1853,1847
780076,1858,1852,1847
780086,1856,1852,1847
780096,1856,1851,1851
780106,1857,1850,1851
780116,1859,1852,1854
780126,1858,1850,1853
780136,1859,1855,1855
780146,1859,1855,1847
780156,1859,1854,1854
780166,1861,1852,1851
780176,1861,1853,1851
780186,1861,1856,1853
780196,1861,1855,1853
780206,1865,1854,1850
780216,1863,1853,1851
780226,1864,1855,1855
780236,1859,1856,1852
780246,1866,1855,1851
780256,1861,1857,1853
780266,1862,1856,1853
780276,1862,1855,1851
780286,1863,1856,1851
780296,1867,1856,1852
780306,1866,1859,1855
780316,1870,1861,1856
780326,1872,1867,1861
780336,1879,1868,1870
780346,1887,1871,1871
780356,1890,1872,1872
780366,1895,1877,1877
780376,1898,1879,1883
780386,1904,1885,1883
780396,1904,1887,1889
780406,1907,1883,1894
780416,1907,1884,1891
780426,1909,1885,1895
780436,1906,1883,1894
780446,1905,1884,1888
780456,1904,1882,1890
780466,1902,1876,1887
780476,1898,1874,1887
780486,1892,1873,1883
780496,1887,1873,1880
780506,1885,1872,1876
780516,1881,1870,1872
780526,1874,1867,1872
780536,1872,1863,1867
780546,1869,1861,1867
780556,1867,1859,1859
780566,1865,1857,1859
780576,1861,1859,1862
780586,1861,1855,1858
780596,1863,1856,1858
780606,1859,1857,1857
780616,1861,1855,1853
780626,1863,1855,1856
780636,1862,1855,1855
780646,1859,1854,1856
780656,1861,1855,1856
780666,1863,1856,1856
780676,1868,1855,1856
780686,1867,1857,1856
780696,1866,1859,1856
780706,1866,1859,1857
780716,1866,1855,1862
780726,1865,1855,1856
780736,1867,1856,1859
780746,1863,1855,1856
780756,1863,1856,1858
780766,1866,1855,1858
780776,1865,1852,1856
780786,1865,1853,1854
780796,1860,1854,1856
780806,1862,1853,1856
780816,1861,1853,1855
780826,1862,1857,1854
780836,1862,1853,1851
780846,1862,1852,1850
780856,1861,1857,1850
780866,1859,1854,1847
780876,1859,1855,1850
780886,1862,1853,1847
780896,1859,1849,1849
780906,1858,1852,1847
780916,1858,1855,1850
780926,1862,1852,1851
780936,1859,1855,1844
780946,1858,1849,1847
780956,1858,1850,1852
780966,1857,1852,1855
780976,1858,1846,1847
780986,1861,1851,1850
780996,1863,1847,1850
781006,1863,1853,1853
781016,1862,1853,1850
781026,1862,1857,1851
781036,1866,1863,1853
781046,1862,1853,1853
781056,1863,1853,1852
781066,1863,1852,1851
781076,1862,1851,1851
781086,1863,1854,1851
781096,1863,1854,1853
781106,1866,1851,1851
781116,1868,1856,1853
781126,1871,1858,1851
781136,1872,1859,1856
781146,1873,1861,1859
781156,1879,1866,1863
781166,1885,1866,1871
781176,1889,1872,1871
781186,1898,1872,1874
781196,1904,1873,1881
781206,1904,1879,1883
781216,1906,1882,1885
781226,1908,1883,1889
781236,1911,1884,1890
781246,1910,1883,1890
781256,1905,1881,1891
781266,1906,1882,1889
781276,1904,1878,1887
781286,1902,1878,1887
781296,1895,1877,1883
781306,1888,1873,1882
781316,1887,1872,1879
781326,1885,1869,1878
781336,1875,1866,1872
781346,1872,1865,1872
781356,1870,1862,1871
781366,1867,1862,1866
781376,1863,1858,1861
781386,1856,1855,1862
781396,1854,1853,1860
781406,1855,1847,1856
781416,1854,1851,1856
781426,1855,1849,1855
781436,1855,1850,1853
781446,1855,1849,1854
781456,1856,1852,1851
781466,1858,1851,1855
781476,1859,1854,1855
781486,1861,1854,1855
781496,1859,1857,1855
781506,1863,1858,1857
781516,1865,1855,1856
781526,1861,1856,1855
781536,1866,1855,1855
781546,1866,1856,1856
781556,1867,1854,1855
781566,1867,1855,1855
781576,1865,1855,1856
781586,1865,1854,1854
781596,1862,1855,1854
781606,1863,1855,1856
781616,1859,1853,1856
781626,1859,1851,1852
781636,1858,1853,1855
781646,1858,1850,1850
1656,1856,1854,1853
781666,1856,1850,1850
781676,1855,1850,1851
781686,1855,1851,1851
781696,1855,1851,1850
781706,1859,1851,1850
781716,1855,1852,1850
781726,1855,1850,1849
781736,1856,1850,1850
781746,1858,1851,1847
781756,1861,1850,1849
781766,1859,1855,1847
781776,1857,1853,1849
781786,1862,1853,1847
781796,1861,1854,1854
781806,1860,1853,1850
781816,1865,1855,1850
781826,1860,1854,1850
781836,1861,1851,1854
781846,1866,1855,1853
781856,1861,1853,1853
781866,1862,1851,1855
781876,1863,1847,1853
781886,1863,1853,1854
781896,1861,1853,1853
781906,1859,1853,1851
781916,1862,1855,1853
781926,1863,1853,1854
781936,1861,1855,1855
781946,1865,1854,1855
781956,1865,1857,1855
781966,1867,1856,1855
781976,1872,1859,1860
781986,1874,1862,1862
781996,1877,1870,1866
782006,1885,1871,1867
782016,1890,1872,1872
782026,1896,1875,1874
782036,1901,1882,1879
782046,1904,1883,1884
782056,1905,1885,1888
782066,1904,1885,1888
782076,1907,1883,1890
782086,1906,1886,1891
782096,1905,1883,1893
782106,1904,1883,1891
782116,1899,1882,1888
782126,1895,1879,1887
782136,1894,1877,1884
782146,1887,1875,1879
782156,1886,1872,1877
782166,1885,1872,1873
782176,1873,1867,1872
782186,1870,1866,1872
782196,1868,1862,1871
782206,1865,1858,1867
782216,1865,1858,1866
782226,1861,1855,1862
782236,1860,1856,1861
782246,1856,1851,1857
782256,1856,1855,1856
782266,1856,1850,1857
782276,1855,1850,1856
782286,1858,1853,1854
782296,1861,1851,1855
782306,1858,1854,1854
782316,1861,1854,1857
782326,1863,1858,1859
782336,1863,1855,1857
782346,1867,1855,1856
782356,1869,1856,1858
782366,1862,1856,1859
782376,1866,1856,1858
782386,1869,1857,1859
782396,1869,1857,1858
782406,1867,1858,1857
782416,1863,1855,1857
782426,1861,1857,1857
782436,1862,1856,1857
782446,1863,1856,1856
782456,1866,1854,1857
782466,1866,1856,1855
782476,1863,1854,1855
782486,1861,1855,1854
782496,1863,1856,1851
782506,1857,1854,1850
782516,1861,1853,1847
782526,1859,1850,1853
782536,1859,1851,1851
782546,1860,1851,1849
782556,1857,1850,1851
782566,1856,1851,1853
782576,1859,1853,1850
782586,1859,1851,1850
782596,1857,1850,1847
782606,1858,1851,1851
782616,1856,1847,1850
782626,1861,1850,1854
782636,1861,1847,1852
782646,1858,1850,1851
782656,1859,1851,1851
782666,1861,1854,1853
782676,1861,1851,1852
782686,1861,1850,1847
782696,1861,1854,1851
782706,1859,1853,1851
782716,1863,1853,1853
782726,1863,1850,1851
782736,1864,1852,1853
782746,1863,1851,1851
782756,1863,1853,1853
782766,1863,1855,1851
782776,1866,1854,1847
782786,1867,1854,1852
782796,1862,1858,1854
782806,1868,1855,1855
782816,1871,1859,1856
782826,1872,1862,1858
782836,1875,1863,1863
782846,1878,1869,1863
782856,1883,1872,1870
782866,1889,1873,1872
782876,1891,1876,1873
782886,1894,1876,1878
782896,1899,1879,1882
782906,1901,1882,1883
782916,1901,1877,1885
782926,1901,1882,1884
782936,1903,1882,1883
782946,1902,1881,1883
782956,1893,1877,1883
782966,1889,1875,1885
782976,1887,1873,1879
782986,1882,1872,1875
782996,1879,1868,1875
783006,1878,1870,1872
783016,1874,1869,1872
783026,1872,1865,1871
783036,1872,1862,1870
783046,1869,1861,1867
783056,1863,1859,1860
783066,1862,1856,1861
783076,1859,1855,1856
783086,1857,1851,1858
783096,1859,1854,1857
783106,1857,1854,1856
783116,1856,1849,1851
783126,1861,1852,1853
783136,1859,1853,1855
783146,1863,1855,1853
783156,1862,1854,1856
783166,1866,1855,1854
783176,1867,1856,1856
783186,1866,1858,1856
783196,1866,1856,1855
783206,1867,1860,1858
783216,1866,1856,1858
783226,1867,1857,1856
783236,1863,1858,1856
783246,1862,1856,1857
783256,1863,1854,1856
783266,1863,1856,1855
783276,1859,1855,1858
783286,1859,1855,1855
783296,1857,1855,1855
783306,1858,1853,1854
783316,1859,1854,1854
783326,1859,1853,1854
783336,1857,1853,1850
783346,1858,1852,1851
783356,1859,1853,1853
783366,1858,1854,1853
783376,1857,1854,1852
783386,1858,1852,1848
783396,1858,1854,1850
783406,1857,1852,1851
783416,1858,1850,1852
783426,1857,1851,1847
783436,1860,1853,1853
783446,1860,1854,1851
783456,1858,1853,1855
783466,1862,1854,1853
783476,1860,1852,1850
783486,1862,1851,1854
783496,1865,1851,1850
783506,1861,1850,1857
783516,1859,1852,1851
783526,1860,1853,1853
783536,1861,1854,1853
783546,1860,1855,1848
783556,1861,1852,1851
783566,1861,1851,1852
783576,1859,1852,1852
783586,1861,1855,1847
783596,1860,1851,1847
783606,1863,1855,1850
783616,1862,1855,1854
783626,1867,1856,1855
783636,1871,1858,1855
783646,1873,1861,1857
783656,1877,1867,1863
783666,1882,1867,1865
783676,1888,1872,1870
783686,1889,1875,1872
783696,1899,1874,1875
783706,1902,1878,1875
783716,1899,1878,1883
783726,1903,1878,1881
783736,1904,1883,1885
783746,1904,1883,1884
783756,1899,1881,1883
783766,1899,1879,1883
783776,1897,1878,1881
783786,1891,1877,1881
783796,1887,1875,1878
783806,1887,1872,1874
783816,1883,1872,1874
783826,1875,1869,1873
783836,1876,1867,1873
783846,1872,1863,1872
783856,1869,1863,1871
783866,1865,1858,1863
783876,1861,1856,1862
783886,1856,1856,1859
783896,1857,1856,1859
783906,1856,1854,1858
783916,1855,1854,1854
783926,1862,1853,1852
783936,1855,1849,1855
783946,1856,1853,1853
783956,1857,1851,1855
783966,1861,1854,1856
783976,1858,1854,1853
783986,1862,1856,1856
783996,1864,1855,1859
784006,1868,1855,1858
784016,1866,1856,1856
784026,1866,1854,1856
784036,1865,1854,1856
784046,1863,1854,1856
784056,1867,1855,1855
784066,1870,1853,1856
784076,1869,1854,1857
784086,1868,1854,1856
784096,1866,1856,1858
784106,1866,1856,1856
784116,1867,1854,1854
784126,1865,1855,1854
784136,1864,1854,1854
784146,1863,1853,1855
784156,1863,1850,1853
784166,1860,1847,1850
784176,1859,1852,1853
784186,1858,1851,1851
784196,1861,1852,1851
784206,1857,1850,1853
784216,1857,1852,1853
784226,1859,1853,1853
784236,1855,1851,1851
784246,1856,1853,1853
784256,1859,1854,1851
784266,1856,1850,1849
784276,1860,1851,1850
784286,1859,1849,1851
784296,1860,1851,1851
784306,1859,1850,1851
784316,1861,1850,1851
784326,1861,1850,1851
784336,1859,1854,1853
784346,1859,1851,1851
784356,1863,1849,1848
784366,1859,1853,1853
784376,1861,1851,1855
784386,1859,1851,1847
784396,1862,1854,1852
784406,1866,1851,1853
784416,1867,1855,1853
784426,1866,1856,1853
784436,1871,1858,1858
784446,1873,1859,1859
784456,1875,1862,1859
784466,1878,1869,1866
784476,1886,1872,1870
784486,1890,1873,1870
784496,1894,1878,1873
784506,1897,1877,1878
784516,1902,1878,1881
784526,1903,1883,1883
784536,1901,1882,1885
784546,1902,1881,1886
784556,1901,1883,1889
784566,1899,1879,1887
784576,1895,1880,1885
784586,1891,1878,1884
784596,1887,1876,1885
784606,1887,1873,1881
784616,1883,1872,1876
784626,1876,1872,1875
784636,1872,1865,1872
784646,1871,1867,1872
784656,1870,1865,1872
784666,1867,1865,1870
784676,1862,1856,1865
784686,1861,1858,1863
784696,1858,1856,1858
784706,1857,1858,1859
784716,1857,1855,1858
784726,1858,1854,1855
784736,1855,1856,1855
784746,1856,1855,1855
784756,1857,1855,1854
784766,1857,1851,1855
784776,1857,1851,1856
784786,1861,1853,1854
784796,1862,1856,1857
784806,1862,1853,1857
784816,1862,1856,1859
784826,1866,1856,1857
784836,1866,1857,1858
784846,1866,1855,1857
784856,1867,1854,1859
784866,1861,1856,1857
784876,1866,1856,1859
784886,1866,1855,1854
784896,1859,1855,1854
784906,1860,1855,1856
784916,1861,1853,1851
784926,1861,1853,1857
784936,1859,1854,1853
784946,1856,1854,1851
784956,1859,1851,1851
784966,1858,1852,1851
784976,1856,1852,1850
784986,1860,1851,1851
784996,1857,1849,1851
785006,1858,1846,1846
785016,1861,1847,1850
785026,1856,1849,1851
785036,1854,1850,1852
785046,1859,1849,1851
785056,1857,1847,1853
785066,1861,1851,1850
785076,1859,1847,1847
785086,1861,1851,1850
785096,1859,1851,1851
785106,1861,1847,1851
785116,1863,1853,1851
785126,1863,1847,1851
785136,1867,1851,1855
785146,1865,1854,1854
785156,1867,1853,1850
785166,1866,1853,1850
785176,1863,1853,1850
785186,1863,1854,1853
785196,1862,1853,1851
785206,1862,1853,1852
785216,1863,1855,1849
785226,1860,1850,1853
785236,1868,1851,1851
785246,1863,1853,1852
785256,1870,1856,1851
785266,1872,1858,1857
785276,1873,1858,1858
785286,1875,1861,1861
785296,1879,1867,1863
785306,1883,1872,1866
785316,1889,1873,1872
785326,1889,1872,1873
785336,1892,1877,1875
785346,1901,1876,1883
785356,1901,1883,1885
785366,1902,1882,1885
785376,1901,1882,1885
785386,1899,1879,1889
785396,1895,1882,1884
785406,1893,1877,1887
785416,1891,1878,1881
785426,1889,1877,1882
785436,1889,1872,1879
785446,1885,1872,1879
785456,1879,1872,1874
785466,1878,1872,1872
785476,1873,1870,1872
785486,1872,1866,1871
785496,1872,1863,1867
785506,1867,1863,1866
785516,1866,1861,1863
785526,1861,1859,1858
785536,1862,1855,1857
785546,1856,1855,1857
785556,1858,1854,1856
785566,1856,1855,1853
785576,1859,1854,1856
785586,1860,1855,1856
785596,1861,1852,1855
785606,1860,1854,1856
785616,1861,1856,1856
785626,1863,1856,1856
785636,1862,1854,1857
785646,1866,1853,1860
785656,1869,1856,1856
785666,1866,1856,1854
785676,1867,1856,1855
785686,1867,1856,1857
785696,1869,1855,1856
785706,1867,1857,1857
785716,1866,1856,1856
785726,1866,1858,1857
785736,1863,1856,1854
785746,1865,1857,1855
785756,1862,1856,1855
785766,1862,1856,1850
785776,1860,1855,1854
785786,1860,1854,1851
785796,1859,1855,1853
785806,1859,1851,1855
785816,1863,1851,1851
785826,1861,1851,1854
785836,1861,1852,1853
785846,1861,1853,1852
785856,1865,1852,1850
785866,1861,1852,1851
785876,1861,1850,1854
785886,1861,1853,1851
785896,1859,1854,1851
785906,1861,1854,1849
785916,1860,1854,1851
785926,1861,1853,1850
785936,1861,1850,1853
785946,1861,1853,1853
785956,1858,1851,1853
785966,1859,1849,1849
785976,1858,1850,1851
785986,1859,1851,1853
785996,1861,1850,1851
786006,1861,1851,1855
786016,1861,1854,1851
786026,1862,1853,1852
786036,1863,1853,1850
786046,1865,1851,1850
786056,1867,1855,1850
786066,1862,1853,1850
786076,1867,1853,1855
786086,1867,1856,1854
786096,1868,1857,1854
786106,1870,1858,1857
786116,1872,1862,1858
786126,1874,1865,1863
786136,1881,1870,1866
786146,1883,1870,1872
786156,1889,1872,1873
786166,1894,1873,1877
786176,1895,1877,1882
786186,1898,1875,1883
786196,1903,1886,1885
786206,1901,1887,1888
786216,1904,1886,1889
786226,1903,1885,1896
786236,1899,1885,1889
786246,1897,1882,1890
786256,1895,1881,1893
786266,1891,1875,1882
786276,1889,1875,1883
786286,1889,1872,1882
786296,1883,1872,1882
786306,1878,1872,1881
786316,1875,1869,1875
786326,1872,1867,1872
786336,1870,1863,1870
786346,1865,1863,1866
786356,1863,1863,1861
786366,1863,1859,1861
786376,1856,1857,1859
786386,1859,1856,1858
786396,1857,1856,1858
786406,1859,1855,1856
786416,1859,1856,1855
786426,1861,1853,1856
786436,1863,1854,1856
786446,1865,1856,1854
786456,1862,1857,1857
786466,1866,1854,1856
786476,1866,1856,1856
786486,1868,1856,1857
786496,1868,1858,1856
786506,1868,1858,1858
786516,1867,1859,1858
786526,1867,1857,1857
786536,1869,1856,1858
786546,1868,1856,1858
786556,1863,1854,1858
786566,1867,1856,1857
786576,1867,1859,1857
786586,1866,1854,1855
786596,1866,1855,1855
786606,1863,1854,1855
786616,1861,1855,1854
786626,1861,1851,1855
786636,1861,1850,1855
786646,1858,1850,1854
786656,1859,1849,1853
786666,1857,1847,1853
786676,1855,1851,1853
786686,1858,1852,1853
786696,1855,1851,1854
786706,1856,1852,1854
786716,1858,1851,1851
786726,1859,1853,1854
786736,1859,1854,1856
786746,1859,1856,1855
786756,1863,1855,1855
786766,1863,1854,1853
786776,1866,1856,1854
786786,1867,1855,1854
786796,1867,1855,1853
786806,1866,1856,1853
786816,1867,1855,1850
786826,1867,1856,1854
786836,1869,1854,1854
786846,1870,1856,1851
786856,1870,1854,1851
786866,1869,1852,1853
786876,1867,1851,1849
786886,1866,1849,1851
786896,1865,1851,1849
786906,1863,1849,1854
786916,1859,1851,1851
786926,1866,1852,1851
786936,1863,1850,1851
786946,1863,1855,1851
786956,1863,1854,1854
786966,1866,1856,1856
786976,1872,1860,1860
786986,1875,1865,1863
786996,1878,1870,1869
787006,1887,1870,1873
787016,1891,1875,1874
787026,1895,1879,1879
787036,1901,1879,1882
787046,1904,1882,1884
787056,1904,1885,1889
787066,1904,1887,1894
787076,1904,1888,1889
787086,1904,1885,1889
787096,1902,1882,1890
787106,1898,1881,1888
787116,1894,1879,1887
787126,1890,1877,1885
787136,1885,1877,1882
787146,1878,1873,1879
787156,1877,1872,1878
787166,1873,1871,1874
787176,1871,1871,1873
787186,1867,1867,1871
787196,1866,1863,1870
787206,1862,1862,1866
787216,1858,1856,1866
787226,1858,1856,1863
787236,1856,1855,1863
787246,1856,1855,1859
787256,1856,1855,1858
787266,1853,1853,1856
787276,1853,1847,1856
787286,1855,1852,1855
787296,1854,1851,1854
787306,1856,1851,1854
787316,1857,1850,1853
787326,1862,1850,1856
787336,1863,1851,1856
787346,1861,1854,1854
787356,1863,1851,1856
787366,1865,1852,1858
787376,1863,1853,1857
787386,1863,1855,1858
787396,1863,1855,1855
787406,1863,1854,1856
787416,1863,1853,1857
787426,1865,1855,1856
787436,1867,1853,1853
787446,1868,1854,1856
787456,1867,1854,1855
787466,1867,1851,1855
787476,1863,1853,1853
787486,1863,1851,1854
787496,1867,1851,1851
787506,1862,1850,1851
787516,1861,1853,1851
787526,1862,1852,1854
787536,1861,1853,1851
787546,1859,1851,1851
787556,1862,1852,1851
787566,1859,1853,1850
787576,1861,1847,1851
787586,1861,1850,1850
787596,1862,1852,1851
787606,1861,1851,1847
787616,1863,1851,1850
787626,1863,1847,1853
787636,1863,1846,1851
787646,1861,1852,1850
787656,1862,1851,1851
787666,1863,1847,1853
787676,1861,1850,1850
787686,1861,1850,1849
787696,1861,1850,1851
787706,1861,1852,1854
787716,1862,1851,1851
787726,1863,1850,1852
787736,1859,1851,1848
787746,1863,1849,1851
787756,1862,1846,1851
787766,1862,1851,1850
787776,1865,1856,1853
787786,1871,1854,1854
787796,1872,1857,1856
787806,1872,1855,1857
787816,1877,1861,1860
787826,1883,1869,1866
787836,1889,1872,1871
787846,1889,1873,1871
787856,1898,1877,1875
787866,1902,1879,1881
787876,1899,1879,1884
787886,1900,1882,1886
787896,1904,1883,1887
787906,1904,1885,1886
787916,1901,1883,1888
787926,1902,1881,1887
787936,1900,1881,1886
787946,1897,1875,1885
787956,1890,1877,1883
787966,1890,1874,1882
787976,1886,1872,1879
787986,1885,1871,1877
787996,1875,1870,1874
788006,1873,1867,1872
788016,1872,1862,1869
788026,1867,1862,1866
788036,1863,1861,1865
788046,1860,1857,1863
788056,1856,1855,1858
788066,1856,1855,1857
788076,1854,1853,1859
788086,1854,1853,1857
788096,1853,1852,1854
788106,1855,1851,1855
788116,1856,1852,1855
788126,1858,1852,1854
788136,1859,1854,1857
788146,1862,1854,1855
788156,1863,1856,1853
788166,1866,1855,1854
788176,1865,1857,1857
788186,1869,1857,1857
788196,1868,1856,1857
788206,1868,1858,1858
788216,1871,1856,1856
788226,1867,1855,1856
788236,1869,1856,1858
788246,1867,1856,1857
788256,1866,1856,1858
788266,1862,1855,1858
788276,1862,1854,1855
788286,1865,1854,1856
788296,1863,1855,1855
788306,1864,1850,1854
788316,1863,1849,1855
788326,1862,1847,1852
788336,1862,1850,1852
788346,1860,1847,1852
788356,1858,1851,1849
788366,1865,1850,1852
788376,1859,1850,1850
788386,1861,1849,1851
788396,1860,1850,1851
788406,1861,1851,1852
788416,1865,1850,1851
788426,1861,1850,1849
788436,1862,1851,1850
788446,1866,1853,1851
788456,1865,1854,1849
788466,1862,1850,1854
788476,1866,1850,1849
788486,1861,1850,1850
788496,1862,1851,1854
788506,1866,1847,1851
788516,1868,1851,1847
788526,1862,1851,1851
788536,1865,1851,1853
788546,1863,1851,1851
788556,1869,1854,1853
788566,1870,1856,1856
788576,1872,1857,1856
788586,1873,1858,1857
788596,1877,1861,1861
788606,1882,1871,1869
788616,1888,1872,1872
788626,1887,1873,1874
788636,1894,1873,1877
788646,1899,1882,1881
788656,1904,1879,1883
788666,1904,1886,1887
788676,1904,1883,1888
788686,1905,1886,1891
788696,1904,1883,1888
788706,1899,1882,1891
788716,1901,1880,1890
788726,1895,1877,1890
788736,1890,1878,1889
788746,1885,1873,1885
788756,1885,1871,1882
788766,1881,1871,1881
788776,1875,1870,1879
788786,1874,1870,1873
788796,1869,1866,1873
788806,1869,1861,1870
788816,1869,1861,1867
788826,1862,1857,1861
788836,1859,1857,1864
788846,1862,1856,1857
788856,1859,1855,1858
788866,1856,1855,1859
788876,1859,1855,1856
788886,1858,1854,1856
788896,1858,1853,1856
788906,1863,1851,1855
788916,1861,1855,1856
788926,1866,1856,1856
788936,1861,1856,1856
788946,1863,1855,1856
788956,1865,1856,1861
788966,1869,1855,1859
788976,1867,1856,1858
788986,1865,1856,1856
788996,1863,1856,1856
789006,1865,1856,1860
789016,1862,1853,1857
789026,1860,1856,1856
789036,1862,1855,1856
789046,1863,1855,1857
789056,1861,1851,1854
789066,1861,1854,1855
789076,1858,1850,1851
789086,1861,1847,1853
789096,1859,1850,1853
789106,1858,1849,1853
789116,1859,1847,1851
789126,1861,1849,1847
789136,1856,1849,1852
789146,1858,1851,1851
789156,1857,1849,1851
789166,1860,1851,1850
789176,1857,1850,1851
789186,1857,1854,1851
789196,1860,1851,1850
789206,1861,1851,1850
789216,1862,1851,1851
789226,1858,1855,1851
789236,1861,1852,1850
789246,1863,1853,1851
789256,1863,1853,1851
789266,1866,1853,1849
789276,1863,1851,1847
789286,1869,1854,1850
789296,1859,1850,1850
789306,1861,1854,1849
789316,1862,1854,1851
789326,1861,1853,1850
789336,1862,1852,1854
789346,1867,1854,1854
789356,1863,1854,1853
789366,1861,1854,1854
789376,1872,1856,1857
789386,1872,1857,1856
789396,1872,1862,1860
789406,1879,1866,1863
789416,1882,1871,1870
789426,1891,1874,1874
789436,1893,1875,1879
789446,1895,1877,1884
789456,1903,1885,1887
789466,1904,1887,1889
789476,1904,1887,1895
789486,1905,1889,1891
789496,1904,1886,1894
789506,1903,1885,1894
789516,1901,1883,1891
789526,1900,1882,1893
789536,1895,1881,1889
789546,1893,1879,1888
789556,1887,1876,1882
789566,1887,1873,1878
789576,1883,1872,1877
789586,1879,1870,1876
789596,1876,1866,1874
789606,1872,1862,1872
789616,1870,1859,1868
789626,1865,1858,1863
789636,1861,1855,1862
789646,1859,1854,1858
789656,1859,1854,1857
789666,1859,1853,1854
789676,1856,1851,1854
789686,1856,1853,1852
789696,1859,1855,1855
789706,1860,1853,1851
789716,1861,1854,1855
789726,1859,1853,1854
789736,1858,1855,1856
789746,1865,1856,1855
789756,1862,1856,1854
789766,1867,1856,1856
789776,1869,1856,1856
789786,1869,1856,1856
789796,1868,1856,1856
789806,1869,1857,1855
789816,1867,1854,1856
789826,1869,1854,1855
789836,1865,1855,1854
789846,1867,1853,1853
789856,1865,1853,1854
789866,1863,1853,1853
789876,1861,1851,1850
789886,1860,1851,1855
789896,1857,1850,1851
789906,1861,1850,1851
789916,1861,1845,1851
789926,1859,1849,1850
789936,1861,1850,1849
789946,1860,1847,1850
789956,1857,1850,1849
789966,1859,1850,1850
789976,1859,1849,1847
789986,1857,1852,1845
789996,1859,1851,1847
790006,1865,1849,1845
790016,1861,1849,1847
790026,1860,1853,1850
790036,1863,1851,1849
790046,1861,1851,1850
790056,1861,1853,1853
790066,1862,1851,1849
790076,1862,1854,1849
790086,1863,1855,1850
790096,1859,1853,1852
790106,1861,1852,1849
790116,1859,1852,1851
790126,1859,1854,1849
790136,1859,1852,1850
790146,1861,1853,1850
790156,1865,1854,1850
790166,1858,1851,1849
790176,1863,1854,1853
790186,1858,1855,1846
790196,1863,1855,1850
790206,1869,1856,1856
790216,1872,1859,1863
790226,1873,1862,1862
790236,1881,1869,1866
790246,1885,1871,1872
790256,1890,1873,1876
790266,1897,1879,1882
790276,1895,1877,1887
790286,1901,1882,1887
790296,1904,1883,1891
790306,1905,1887,1894
790316,1905,1888,1893
790326,1904,1887,1894
790336,1904,1888,1897
790346,1904,1885,1893
790356,1901,1882,1893
790366,1895,1881,1888
790376,1897,1878,1889
790386,1890,1874,1888
790396,1888,1875,1886
790406,1883,1872,1877
790416,1878,1872,1877
790426,1876,1866,1874
790436,1873,1866,1871
790446,1872,1862,1869
790456,1871,1862,1865
790466,1863,1861,1859
790476,1861,1857,1861
790486,1857,1854,1860
790496,1859,1856,1857
790506,1859,1856,1859
790516,1857,1853,1856
790526,1858,1854,1857
790536,1857,1853,1856
790546,1861,1855,1856
790556,1861,1854,1858
790566,1863,1855,1858
790576,1862,1854,1861
790586,1867,1856,1858
790596,1868,1855,1859
790606,1869,1856,1859
790616,1871,1856,1860
790626,1869,1858,1857
790636,1866,1854,1856
790646,1867,1856,1855
790656,1865,1855,1858
790666,1865,1856,1858
790676,1868,1856,1854
790686,1865,1855,1855
790696,1870,1856,1854
790706,1866,1854,1853
790716,1863,1853,1853
790726,1862,1854,1854
790736,1863,1853,1849
790746,1862,1850,1853
790756,1859,1854,1850
790766,1863,1853,1849
790776,1860,1851,1846
790786,1860,1847,1850
790796,1865,1853,1850
790806,1865,1850,1849
790816,1861,1851,1847
790826,1861,1847,1846
790836,1861,1850,1850
790846,1867,1849,1853
790856,1865,1851,1851
790866,1862,1851,1847
790876,1869,1850,1849
790886,1863,1849,1851
790896,1867,1853,1853
790906,1862,1849,1852
790916,1862,1851,1851
790926,1863,1852,1851
790936,1865,1850,1853
790946,1863,1855,1854
790956,1862,1853,1850
790966,1869,1854,1851
790976,1869,1855,1858
790986,1872,1859,1857
790996,1877,1863,1862
791006,1878,1869,1867
791016,1890,1870,1872
791026,1892,1872,1875
791036,1898,1877,1882
791046,1904,1878,1889
791056,1905,1883,1891
791066,1907,1884,1895
791076,1911,1888,1898
791086,1909,1889,1901
791096,1910,1887,1902
791106,1909,1886,1902
791116,1904,1886,1898
791126,1904,1886,1899
791136,1901,1887,1901
791146,1897,1882,1895
791156,1893,1882,1890
791166,1887,1878,1885
791176,1885,1875,1885
791186,1881,1872,1883
791196,1873,1870,1878
791206,1872,1867,1873
791216,1871,1867,1871
791226,1863,1860,1868
791236,1863,1858,1867
791246,1859,1858,1861
791256,1861,1856,1859
791266,1854,1855,1855
791276,1854,1856,1856
791286,1856,1853,1856
791296,1858,1855,1850
791306,1857,1853,1854
791316,1858,1854,1854
791326,1859,1855,1856
791336,1861,1853,1855
791346,1863,1854,1858
791356,1866,1856,1859
791366,1866,1855,1856
791376,1866,1856,1858
791386,1865,1855,1856
791396,1869,1857,1857
791406,1866,1853,1857
791416,1869,1855,1856
791426,1866,1856,1857
791436,1863,1853,1858
791446,1863,1854,1856
791456,1862,1854,1857
791466,1862,1853,1856
791476,1861,1854,1854
791486,1857,1855,1855
791496,1857,1851,1853
791506,1857,1852,1854
791516,1858,1847,1852
791526,1858,1849,1847
791536,1858,1847,1850
791546,1859,1851,1850
791556,1856,1849,1850
791566,1855,1845,1850
791576,1855,1846,1851
791586,1855,1849,1849
791596,1856,1846,1851
791606,1858,1850,1851
791616,1859,1849,1851
791626,1858,1850,1850
791636,1859,1851,1850
791646,1861,1851,1850
791656,1859,1853,1853
791666,1859,1854,1852
791676,1860,1857,1851
791686,1862,1852,1854
791696,1861,1854,1847
791706,1863,1853,1849
791716,1861,1853,1851
791726,1861,1855,1851
791736,1860,1850,1847
791746,1861,1850,1850
791756,1861,1851,1849
791766,1862,1856,1850
791776,1862,1854,1856
791786,1861,1854,1856
791796,1870,1856,1859
791806,1872,1859,1859
791816,1874,1862,1866
791826,1879,1870,1872
791836,1887,1872,1874
791846,1891,1873,1884
791856,1899,1878,1889
791866,1904,1883,1895
791876,1904,1890,1898
791886,1907,1892,1904
791896,1910,1890,1904
791906,1907,1891,1904
791916,1909,1894,1904
791926,1904,1889,1903
791936,1904,1890,1904
791946,1903,1886,1901
791956,1899,1884,1898
791966,1894,1883,1891
791976,1891,1879,1889
791986,1888,1878,1888
791996,1886,1875,1886
792006,1878,1872,1883
792016,1872,1872,1877
792026,1870,1866,1874
792036,1865,1861,1870
792046,1861,1857,1867
792056,1856,1859,1862
792066,1857,1858,1861
792076,1856,1856,1860
792086,1855,1854,1857
792096,1850,1851,1855
792106,1855,1853,1851
792116,1856,1851,1855
792126,1855,1854,1854
792136,1858,1852,1854
792146,1858,1850,1852
792156,1862,1851,1856
792166,1862,1855,1856
792176,1867,1856,1857
792186,1861,1853,1856
792196,1866,1856,1860
792206,1863,1857,1858
792216,1867,1854,1857
792226,1865,1856,1861
792236,1865,1854,1856
792246,1867,1855,1854
792256,1862,1855,1859
792266,1863,1855,1855
792276,1860,1853,1850
792286,1861,1853,1850
792296,1859,1851,1851
792306,1861,1853,1847
792316,1861,1850,1849
792326,1861,1849,1847
792336,1859,1853,1849
792346,1858,1851,1849
792356,1857,1849,1846
792366,1857,1850,1851
792376,1856,1847,1851
792386,1856,1846,1845
792396,1857,1849,1849
792406,1859,1848,1845
792416,1858,1847,1849
792426,1858,1846,1849
792436,1859,1850,1846
792446,1861,1851,1847
792456,1862,1849,1845
792466,1859,1850,1844
792476,1861,1850,1850
792486,1862,1850,1846
792496,1863,1850,1851
792506,1859,1854,1851
792516,1861,1850,1851
792526,1863,1851,1851
792536,1860,1851,1850
792546,1860,1851,1851
792556,1863,1850,1853
792566,1860,1852,1850
792576,1862,1851,1850
792586,1860,1851,1851
792596,1862,1853,1852
792606,1861,1856,1854
792616,1867,1853,1856
792626,1871,1856,1858
792636,1872,1858,1860
792646,1875,1863,1867
792656,1883,1867,1872
792666,1890,1872,1881
792676,1897,1874,1884
792686,1902,1877,1888
792696,1904,1885,1895
792706,1909,1884,1903
792716,1913,1887,1903
792726,1914,1890,1905
792736,1911,1890,1904
792746,1910,1888,1904
792756,1910,1887,1905
792766,1907,1888,1904
792776,1904,1885,1902
792786,1904,1885,1900
792796,1899,1880,1898
792806,1897,1877,1894
792816,1889,1873,1889
792826,1885,1872,1887
792836,1881,1872,1883
792846,1872,1871,1878
792856,1872,1863,1872
792866,1868,1862,1869
792876,1862,1858,1866
792886,1861,1855,1859
792896,1861,1855,1857
792906,1857,1855,1856
792916,1858,1851,1851
792926,1859,1849,1850
792936,1860,1849,1849
792946,1862,1845,1851
792956,1863,1849,1851
792966,1862,1849,1851
792976,1863,1853,1854
792986,1861,1854,1851
792996,1866,1852,1850
793006,1866,1853,1856
793016,1866,1854,1857
793026,1870,1854,1856
793036,1865,1854,1858
793046,1867,1856,1856
793056,1868,1853,1855
793066,1868,1853,1855
793076,1867,1855,1855
793086,1866,1853,1855
793096,1862,1851,1854
793106,1859,1854,1853
793116,1859,1850,1850
793126,1861,1851,1851
793136,1859,1851,1846
793146,1857,1853,1846
793156,1856,1847,1846
793166,1859,1847,1847
793176,1861,1850,1847
793186,1858,1846,1846
793196,1858,1846,1849
793206,1858,1850,1846
793216,1858,1850,1846
793226,1859,1853,1849
793236,1859,1847,1846
793246,1856,1849,1850
793256,1859,1850,1849
793266,1859,1847,1849
793276,1858,1847,1853
793286,1858,1851,1846
793296,1858,1853,1846
793306,1861,1851,1852
793316,1860,1849,1849
793326,1863,1851,1847
793336,1862,1851,1847
793346,1859,1853,1847
793356,1861,1848,1847
793366,1859,1850,1845
793376,1860,1851,1847
793386,1860,1850,1850
793396,1862,1847,1846
793406,1860,1852,1845
793416,1859,1847,1846
793426,1859,1847,1848
793436,1860,1853,1845
793446,1862,1853,1849
793456,1866,1856,1851
793466,1869,1858,1855
793476,1872,1857,1858
793486,1878,1860,1863
793496,1883,1867,1869
793506,1891,1873,1877
793516,1899,1875,1885
793526,1904,1879,1890
793536,1905,1884,1894
793546,1915,1886,1899
793556,1914,1891,1903
793566,1915,1894,1905
793576,1916,1890,1909
793586,1919,1893,1906
793596,1910,1894,1909
793606,1910,1889,1905
793616,1904,1889,1903
793626,1903,1886,1902
793636,1899,1881,1892
793646,1898,1879,1894
793656,1889,1877,1888
793666,1883,1873,1885
793676,1878,1870,1878
793686,1872,1871,1873
793696,1870,1869,1872
793706,1859,1858,1869
793716,1860,1858,1863
793726,1855,1857,1860
793736,1851,1855,1855
793746,1850,1850,1854
793756,1850,1852,1851
793766,1851,1847,1847
793776,1854,1847,1850
793786,1854,1847,1847
793796,1855,1849,1849
793806,1857,1849,1854
793816,1859,1854,1851
793826,1859,1852,1853
793836,1862,1856,1854
793846,1859,1853,1854
793856,1866,1855,1855
793866,1868,1853,1855
793876,1863,1855,1855
793886,1867,1852,1856
793896,1869,1856,1856
793906,1863,1854,1855
793916,1865,1855,1855
793926,1863,1854,1853
793936,1860,1855,1853
793946,1861,1853,1851
793956,1861,1853,1851
793966,1856,1851,1853
793976,1857,1851,1850
793986,1862,1850,1847
793996,1856,1850,1846
794006,1858,1847,1844
794016,1857,1846,1846
794026,1856,1846,1845
794036,1856,1845,1845
794046,1857,1849,1842
794056,1858,1850,1844
794066,1856,1850,1844
794076,1857,1847,1844
794086,1858,1847,1842
794096,1856,1846,1846
794106,1858,1852,1848
794116,1857,1849,1847
794126,1862,1851,1847
794136,1863,1851,1847
794146,1862,1849,1845
794156,1857,1853,1842
794166,1862,1851,1846
794176,1862,1849,1847
794186,1859,1849,1847
794196,1861,1851,1847
794206,1859,1851,1850
794216,1859,1850,1846
794226,1859,1850,1847
794236,1859,1849,1847
794246,1859,1850,1845
794256,1862,1853,1847
794266,1860,1853,1847
794276,1865,1854,1847
794286,1863,1854,1855
794296,1872,1858,1858
794306,1877,1865,1859
794316,1875,1869,1871
794326,1888,1872,1872
794336,1893,1872,1878
794346,1899,1878,1886
794356,1903,1887,1893
794366,1904,1887,1899
794376,1907,1890,1903
794386,1908,1894,1904
794396,1915,1894,1904
794406,1910,1891,1906
794416,1907,1891,1907
794426,1904,1890,1905
794436,1904,1887,1902
794446,1901,1885,1903
794456,1898,1890,1898
794466,1894,1877,1895
794476,1887,1881,1892
794486,1885,1878,1885
794496,1878,1872,1885
794506,1877,1871,1877
794516,1872,1866,1873
794526,1866,1859,1869
794536,1863,1859,1863
794546,1860,1856,1861
794556,1858,1856,1855
794566,1856,1851,1854
794576,1853,1850,1850
794586,1856,1850,1849
794596,1854,1849,1849
794606,1854,1845,1843
794616,1851,1850,1849
794626,1858,1849,1847
794636,1859,1846,1852
794646,1862,1851,1854
794656,1862,1852,1853
794666,1862,1855,1856
794676,1867,1854,1856
794686,1863,1851,1858
794696,1868,1856,1856
794706,1865,1854,1858
794716,1866,1854,1855
794726,1861,1855,1856
794736,1861,1855,1856
794746,1862,1853,1855
794756,1862,1855,1854
794766,1860,1852,1847
794776,1858,1850,1847
794786,1862,1847,1850
794796,1859,1851,1844
794806,1856,1850,1847
794816,1857,1846,1847
794826,1858,1847,1847
794836,1856,1852,1847
794846,1856,1847,1845
794856,1858,1851,1846
794866,1856,1847,1842
794876,1857,1846,1846
794886,1857,1845,1845
794896,1856,1846,1844
794906,1856,1847,1843
794916,1857,1847,1843
794926,1856,1850,1842
794936,1860,1847,1843
794946,1857,1850,1846
794956,1856,1849,1843
794966,1858,1853,1845
794976,1861,1847,1845
794986,1861,1851,1846
794996,1863,1851,1845
795006,1861,1852,1847
795016,1859,1847,1847
795026,1859,1850,1845
795036,1857,1847,1852
795046,1862,1851,1847
795056,1859,1852,1847
795066,1859,1853,1846
795076,1862,1847,1845
795086,1857,1854,1843
795096,1861,1851,1842
795106,1862,1851,1845
795116,1863,1854,1843
795126,1863,1853,1851
795136,1867,1856,1853
795146,1869,1857,1855
795156,1874,1863,1859
795166,1879,1870,1871
795176,1887,1871,1872
795186,1891,1875,1878
795196,1903,1879,1888
795206,1904,1885,1893
795216,1906,1888,1901
795226,1911,1889,1903
795236,1913,1891,1904
795246,1911,1895,1906
795256,1913,1893,1906
795266,1909,1891,1910
795276,1906,1893,1904
795286,1904,1890,1904
795296,1902,1889,1901
795306,1898,1888,1901
795316,1891,1881,1894
795326,1887,1879,1890
795336,1879,1875,1883
795346,1877,1872,1884
795356,1871,1872,1877
795366,1870,1868,1872
795376,1867,1862,1869
795386,1866,1858,1863
795396,1861,1856,1859
795406,1856,1854,1857
795416,1855,1851,1857
795426,1855,1853,1853
795436,1856,1849,1850
795446,1854,1851,1851
795456,1855,1850,1845
795466,1856,1849,1846
795476,1859,1846,1850
795486,1858,1850,1851
795496,1858,1852,1850
795506,1859,1851,1854
795516,1867,1853,1856
795526,1861,1855,1857
795536,1865,1854,1856
795546,1866,1852,1857
795556,1865,1854,1856
795566,1863,1855,1856
795576,1861,1852,1856
795586,1862,1850,1854
795596,1862,1851,1856
795606,1857,1851,1854
795616,1858,1850,1853
795626,1861,1846,1854
795636,1856,1851,1849
795646,1858,1852,1851
795656,1856,1849,1849
795666,1856,1850,1845
795676,1856,1850,1845
795686,1855,1849,1843
795696,1859,1843,1847
795706,1856,1846,1845
795716,1856,1846,1843
795726,1856,1845,1843
795736,1856,1845,1844
795746,1855,1851,1844
795756,1857,1849,1840
795766,1858,1849,1843
795776,1858,1848,1845
795786,1857,1852,1841
795796,1861,1850,1841
795806,1859,1849,1843
795816,1859,1853,1846
795826,1859,1850,1843
795836,1858,1849,1844
795846,1858,1849,1845
795856,1858,1850,1843
795866,1859,1846,1844
795876,1858,1849,1842
795886,1856,1848,1842
795896,1856,1850,1843
795906,1856,1849,1842
795916,1854,1845,1846
795926,1859,1846,1846
795936,1856,1846,1846
795946,1856,1849,1841
795956,1859,1844,1846
795966,1859,1849,1845
795976,1858,1849,1842
795986,1863,1854,1847
795996,1866,1853,1852
796006,1867,1857,1853
796016,1872,1863,1858
796026,1877,1865,1862
796036,1878,1868,1870
796046,1887,1872,1873
796056,1891,1880,1879
796066,1898,1883,1887
796076,1903,1887,1895
796086,1904,1890,1897
