timestamp_ms_device,ppg_finger1,ppg_finger2,ppg_finger3
376809,1867,1855,1859
376819,1867,1861,1857
376829,1867,1859,1855
376839,1867,1856,1855
376849,1866,1860,1854
376859,1863,1855,1853
376869,1859,1856,1850
376879,1865,1854,1846
376889,1859,1855,1850
376899,1865,1855,1851
376909,1859,1856,1846
376919,1861,1851,1845
376929,1860,1855,1846
376939,1860,1853,1847
376949,1863,1855,1850
376959,1861,1857,1847
376969,1863,1854,1845
376979,1858,1850,1848
376989,1862,1854,1846
376999,1856,1856,1846
377009,1859,1857,1847
377019,1859,1858,1851
377029,1865,1861,1851
377039,1866,1858,1854
377049,1869,1858,1857
377059,1872,1862,1859
377069,1872,1862,1867
377079,1881,1859,1872
377089,1881,1857,1881
377099,1889,1869,1885
377109,1890,1871,1893
377119,1893,1872,1904
377129,1895,1868,1911
377139,1897,1872,1918
377149,1897,1870,1914
377159,1899,1871,1910
377169,1893,1871,1913
377179,1894,1867,1914
377189,1888,1867,1907
377199,1886,1859,1904
377209,1884,1864,1904
377219,1883,1859,1902
377229,1877,1863,1897
377239,1873,1858,1887
377249,1871,1854,1881
377259,1866,1856,1889
377269,1871,1855,1872
377279,1859,1855,1870
377289,1863,1850,1865
377299,1861,1855,1858
377309,1857,1855,1857
377319,1863,1855,1855
377329,1858,1855,1853
377339,1858,1856,1850
377349,1860,1856,1853
377359,1861,1853,1851
377369,1862,1855,1851
377379,1866,1856,1855
377389,1861,1856,1855
377399,1866,1856,1857
377409,1867,1858,1863
377419,1867,1856,1856
377429,1869,1858,1857
377439,1870,1858,1859
377449,1863,1851,1856
377459,1868,1858,1854
377469,1866,1855,1855
377479,1869,1860,1855
377489,1865,1856,1856
377499,1863,1857,1854
377509,1863,1856,1855
377519,1869,1853,1851
377529,1860,1856,1847
377539,1854,1856,1846
377549,1863,1856,1843
377559,1862,1855,1840
377569,1859,1856,1840
377579,1861,1851,1846
377589,1858,1856,1837
377599,1858,1856,1839
377609,1859,1855,1843
377619,1858,1854,1840
377629,1863,1856,1842
377639,1863,1856,1840
377649,1858,1854,1843
377659,1859,1855,1840
377669,1863,1857,1840
377679,1863,1856,1843
377689,1862,1854,1845
377699,1867,1856,1843
377709,1868,1853,1851
377719,1873,1855,1854
377729,1873,1861,1857
377739,1872,1856,1865
377749,1878,1862,1871
377759,1883,1865,1875
377769,1887,1863,1884
377779,1891,1870,1889
377789,1895,1872,1904
377799,1898,1870,1909
377809,1902,1872,1911
377819,1904,1872,1920
377829,1904,1872,1926
377839,1901,1869,1920
377849,1902,1870,1923
377859,1900,1868,1922
377869,1893,1867,1914
377879,1892,1870,1911
377889,1883,1869,1910
377899,1883,1866,1905
377909,1879,1862,1902
377919,1874,1863,1893
377929,1872,1861,1883
377939,1870,1854,1877
377949,1865,1857,1871
377959,1857,1856,1865
377969,1858,1856,1862
377979,1859,1857,1854
377989,1851,1854,1846
377999,1855,1855,1844
378009,1855,1854,1845
378019,1855,1855,1841
378029,1855,1855,1842
378039,1856,1852,1843
378049,1858,1856,1842
378059,1856,1855,1845
378069,1863,1856,1850
378079,1865,1856,1847
378089,1870,1856,1850
378099,1866,1858,1850
378109,1868,1856,1847
378119,1861,1856,1854
378129,1866,1858,1850
378139,1862,1858,1849
378149,1865,1857,1850
378159,1863,1857,1853
378169,1862,1857,1851
378179,1866,1857,1851
378189,1858,1856,1851
378199,1859,1856,1850
378209,1861,1851,1847
378219,1862,1856,1843
378229,1860,1857,1843
378239,1861,1856,1845
378249,1859,1855,1842
378259,1861,1855,1842
378269,1860,1854,1840
378279,1859,1855,1842
378289,1858,1858,1843
378299,1858,1856,1840
378309,1860,1857,1841
378319,1863,1855,1841
378329,1858,1853,1840
378339,1858,1857,1842
378349,1858,1855,1842
378359,1861,1857,1841
378369,1860,1858,1841
378379,1863,1856,1840
378389,1865,1857,1843
378399,1863,1855,1845
378409,1863,1857,1847
378419,1871,1856,1853
378429,1872,1858,1855
378439,1872,1860,1861
378449,1874,1865,1869
378459,1883,1863,1873
378469,1888,1872,1883
378479,1892,1871,1895
378489,1895,1872,1904
378499,1904,1872,1907
378509,1903,1873,1911
378519,1906,1872,1920
378529,1904,1873,1920
378539,1906,1869,1923
378549,1904,1872,1919
378559,1901,1863,1921
378569,1899,1870,1915
378579,1892,1868,1914
378589,1890,1863,1905
378599,1891,1866,1902
378609,1887,1862,1898
378619,1877,1859,1887
378629,1874,1859,1879
378639,1872,1856,1873
378649,1866,1856,1869
378659,1860,1856,1861
378669,1859,1851,1856
378679,1855,1853,1852
378689,1860,1856,1850
378699,1855,1855,1845
378709,1856,1854,1840
378719,1851,1853,1839
378729,1853,1855,1840
378739,1858,1854,1841
378749,1857,1855,1845
378759,1860,1858,1841
378769,1859,1856,1844
378779,1858,1855,1845
378789,1865,1856,1854
378799,1863,1858,1851
378809,1868,1856,1851
378819,1866,1857,1850
378829,1866,1855,1851
378839,1871,1861,1856
378849,1867,1856,1856
378859,1868,1856,1853
378869,1866,1856,1855
378879,1863,1855,1852
378889,1859,1858,1851
378899,1861,1856,1851
378909,1865,1855,1850
378919,1861,1852,1847
378929,1863,1855,1845
378939,1863,1855,1845
378949,1861,1851,1846
378959,1863,1850,1842
378969,1862,1853,1842
378979,1860,1852,1844
378989,1859,1853,1840
378999,1861,1856,1841
379009,1861,1855,1846
379019,1859,1855,1846
379029,1859,1853,1840
379039,1862,1858,1843
379049,1857,1856,1843
379059,1861,1856,1841
379069,1859,1854,1847
379079,1859,1857,1850
379089,1862,1856,1846
379099,1858,1856,1843
379109,1857,1855,1843
379119,1861,1855,1846
379129,1860,1856,1843
379139,1860,1858,1845
379149,1864,1859,1841
379159,1861,1854,1844
379169,1860,1851,1846
379179,1866,1857,1842
379189,1867,1854,1855
379199,1873,1859,1851
379209,1872,1862,1863
379219,1879,1866,1870
379229,1885,1863,1877
379239,1895,1866,1894
379249,1902,1871,1899
379259,1904,1873,1909
379269,1908,1873,1910
379279,1910,1872,1919
379289,1909,1875,1924
379299,1911,1872,1925
379309,1910,1873,1921
379319,1908,1872,1923
379329,1904,1872,1919
379339,1902,1870,1913
379349,1901,1868,1910
379359,1889,1869,1903
379369,1888,1868,1895
379379,1885,1861,1890
379389,1877,1858,1882
379399,1873,1856,1874
379409,1867,1856,1872
379419,1863,1856,1861
379429,1862,1858,1857
379439,1858,1854,1853
379449,1858,1856,1850
379459,1855,1857,1845
379469,1854,1854,1840
379479,1851,1855,1840
379489,1856,1853,1840
379499,1855,1855,1838
379509,1855,1850,1840
379519,1858,1853,1843
379529,1858,1855,1840
379539,1859,1854,1847
379549,1859,1855,1851
379559,1865,1855,1851
379569,1863,1857,1850
379579,1869,1856,1845
379589,1869,1855,1855
379599,1865,1846,1855
379609,1869,1859,1854
379619,1866,1857,1851
379629,1867,1851,1850
379639,1867,1859,1854
379649,1867,1853,1847
379659,1863,1852,1844
379669,1866,1858,1849
379679,1861,1853,1843
379689,1860,1853,1847
379699,1860,1856,1846
379709,1859,1855,1842
379719,1865,1858,1841
379729,1858,1853,1843
379739,1855,1852,1841
379749,1857,1856,1843
379759,1858,1855,1843
379769,1862,1856,1840
379779,1859,1855,1843
379789,1856,1856,1840
379799,1856,1854,1840
379809,1859,1855,1842
379819,1857,1855,1842
379829,1856,1856,1840
379839,1857,1855,1840
379849,1858,1855,1841
379859,1859,1856,1845
379869,1860,1855,1843
379879,1861,1857,1847
379889,1861,1856,1846
379899,1857,1849,1844
379909,1861,1855,1843
379919,1863,1856,1849
379929,1861,1855,1846
379939,1861,1857,1850
379949,1866,1853,1842
379959,1863,1856,1847
379969,1866,1856,1845
379979,1865,1856,1849
379989,1863,1856,1847
379999,1867,1854,1847
380009,1871,1861,1856
380019,1870,1862,1856
380029,1872,1860,1866
380039,1884,1867,1871
380049,1886,1869,1877
380059,1894,1870,1892
380069,1899,1872,1902
380079,1903,1873,1906
380089,1907,1872,1917
380099,1907,1871,1920
380109,1911,1874,1923
380119,1911,1875,1926
380129,1914,1874,1923
380139,1906,1872,1920
380149,1905,1872,1922
380159,1902,1872,1917
380169,1898,1868,1914
380179,1892,1867,1906
380189,1887,1867,1902
380199,1882,1860,1894
380209,1877,1859,1891
380219,1872,1861,1875
380229,1872,1856,1875
380239,1862,1859,1870
380249,1862,1857,1858
380259,1857,1852,1856
380269,1858,1856,1850
380279,1854,1854,1843
380289,1851,1852,1846
380299,1849,1850,1840
380309,1853,1851,1840
380319,1853,1853,1840
380329,1855,1852,1840
380339,1856,1854,1842
380349,1856,1854,1840
380359,1857,1857,1851
380369,1859,1858,1844
380379,1860,1857,1850
380389,1860,1856,1855
380399,1866,1858,1849
380409,1867,1859,1853
380419,1866,1857,1855
380429,1869,1855,1850
380439,1866,1858,1851
380449,1864,1859,1849
380459,1863,1853,1850
380469,1859,1857,1849
380479,1860,1859,1846
380489,1861,1856,1846
380499,1859,1855,1845
380509,1857,1851,1840
380519,1859,1854,1843
380529,1858,1856,1839
380539,1857,1856,1841
380549,1855,1855,1840
380559,1856,1851,1839
380569,1856,1855,1840
380579,1857,1862,1840
380589,1861,1855,1840
380599,1856,1851,1840
380609,1858,1853,1840
380619,1859,1853,1843
380629,1856,1859,1840
380639,1861,1855,1841
380649,1860,1851,1842
380659,1858,1854,1845
380669,1856,1856,1847
380679,1862,1854,1845
380689,1863,1867,1845
380699,1858,1851,1845
380709,1858,1855,1847
380719,1860,1856,1842
380729,1859,1854,1841
380739,1867,1857,1842
380749,1861,1857,1850
380759,1860,1846,1845
380769,1863,1856,1844
380779,1859,1857,1849
380789,1865,1856,1842
380799,1861,1853,1846
380809,1866,1852,1843
380819,1858,1851,1846
380829,1862,1853,1845
380839,1862,1856,1843
380849,1861,1858,1842
380859,1863,1858,1846
380869,1869,1856,1854
380879,1871,1861,1856
380889,1872,1861,1865
380899,1875,1865,1872
380909,1883,1865,1879
380919,1889,1870,1888
380929,1890,1872,1901
380939,1899,1873,1907
380949,1904,1874,1915
380959,1904,1875,1918
380969,1907,1873,1923
380979,1906,1874,1926
380989,1905,1872,1929
380999,1906,1872,1926
381009,1903,1871,1923
381019,1901,1872,1915
381029,1899,1871,1913
381039,1892,1870,1905
381049,1887,1870,1897
381059,1877,1860,1897
381069,1875,1857,1887
381079,1871,1862,1877
381089,1863,1859,1870
381099,1867,1856,1871
381109,1859,1853,1856
381119,1858,1852,1851
381129,1870,1853,1847
381139,1853,1854,1844
381149,1854,1851,1840
381159,1850,1851,1837
381169,1855,1850,1837
381179,1856,1850,1840
381189,1862,1853,1840
381199,1857,1853,1840
381209,1860,1853,1843
381219,1861,1855,1840
381229,1861,1858,1843
381239,1866,1859,1846
381249,1868,1857,1852
381259,1864,1858,1851
381269,1868,1857,1853
381279,1870,1857,1855
381289,1867,1859,1855
381299,1867,1858,1855
381309,1866,1857,1855
381319,1863,1856,1852
381329,1866,1855,1854
381339,1859,1857,1853
381349,1858,1851,1846
381359,1859,1852,1844
381369,1858,1855,1847
381379,1857,1853,1844
381389,1856,1853,1840
381399,1854,1850,1842
381409,1858,1856,1840
381419,1857,1852,1840
381429,1856,1853,1840
381439,1861,1855,1841
381449,1858,1855,1840
381459,1858,1853,1842
381469,1856,1857,1843
381479,1859,1854,1840
381489,1861,1854,1840
381499,1857,1853,1843
381509,1858,1856,1841
381519,1863,1856,1847
381529,1863,1856,1842
381539,1863,1857,1845
381549,1860,1855,1845
381559,1861,1856,1841
381569,1863,1859,1846
381579,1859,1857,1843
381589,1858,1856,1845
381599,1856,1855,1845
381609,1867,1855,1845
381619,1862,1855,1846
381629,1862,1855,1845
381639,1861,1854,1844
381649,1867,1858,1844
381659,1859,1859,1845
381669,1862,1856,1847
381679,1866,1854,1846
381689,1861,1856,1849
381699,1866,1857,1854
381709,1868,1859,1861
381719,1872,1865,1857
381729,1875,1863,1868
381739,1877,1865,1878
381749,1884,1867,1885
381759,1888,1871,1893
381769,1898,1872,1904
381779,1901,1872,1909
381789,1903,1874,1921
381799,1904,1876,1925
381809,1904,1875,1927
381819,1904,1872,1923
381829,1904,1873,1923
381839,1903,1873,1924
381849,1901,1869,1920
381859,1895,1870,1917
381869,1899,1866,1907
381879,1889,1869,1904
381889,1885,1859,1898
381899,1886,1862,1890
381909,1877,1860,1881
381919,1872,1857,1877
381929,1869,1856,1869
381939,1862,1855,1860
381949,1856,1858,1858
381959,1859,1856,1846
381969,1855,1855,1843
381979,1853,1855,1843
381989,1855,1851,1840
381999,1853,1853,1840
382009,1851,1853,1835
382019,1854,1853,1840
382029,1855,1856,1840
382039,1856,1856,1840
382049,1859,1857,1843
382059,1858,1856,1845
382069,1859,1858,1847
382079,1857,1851,1846
382089,1862,1858,1849
382099,1863,1855,1851
382109,1862,1856,1850
382119,1862,1855,1854
382129,1863,1859,1847
382139,1863,1857,1849
382149,1861,1856,1851
382159,1858,1856,1847
382169,1860,1855,1846
382179,1859,1856,1850
382189,1859,1854,1842
382199,1860,1855,1842
382209,1859,1854,1849
382219,1859,1853,1840
382229,1858,1850,1841
382239,1861,1851,1840
382249,1860,1853,1843
382259,1856,1850,1840
382269,1857,1854,1839
382279,1856,1856,1840
382289,1858,1853,1840
382299,1859,1856,1840
382309,1857,1851,1839
382319,1857,1854,1840
382329,1859,1853,1840
382339,1859,1856,1841
382349,1860,1854,1842
382359,1862,1855,1845
382369,1856,1853,1841
382379,1858,1856,1843
382389,1866,1857,1841
382399,1863,1856,1840
382409,1861,1854,1840
382419,1861,1855,1841
382429,1866,1856,1842
382439,1863,1850,1840
382449,1862,1855,1840
382459,1858,1855,1840
382469,1863,1849,1842
382479,1859,1854,1840
382489,1861,1852,1840
382499,1860,1854,1840
382509,1867,1854,1840
382519,1859,1855,1840
382529,1860,1854,1840
382539,1864,1855,1843
382549,1868,1856,1845
382559,1871,1861,1856
382569,1873,1862,1861
382579,1877,1861,1871
382589,1879,1865,1876
382599,1883,1871,1886
382609,1894,1871,1902
382619,1897,1872,1903
382629,1901,1872,1914
382639,1904,1872,1919
382649,1903,1872,1922
382659,1903,1872,1921
382669,1904,1871,1923
382679,1904,1870,1923
382689,1902,1869,1921
382699,1898,1869,1913
382709,1895,1866,1905
382719,1890,1865,1904
382729,1887,1867,1895
382739,1881,1862,1887
382749,1872,1858,1884
382759,1872,1856,1873
382769,1868,1858,1869
382779,1862,1856,1867
382789,1861,1854,1855
382799,1857,1856,1851
382809,1855,1853,1846
382819,1855,1855,1842
382829,1853,1856,1840
382839,1854,1852,1841
382849,1847,1852,1840
382859,1852,1854,1840
382869,1854,1852,1840
382879,1855,1856,1841
382889,1858,1856,1841
382899,1863,1855,1844
382909,1860,1857,1844
382919,1865,1856,1845
382929,1861,1860,1850
382939,1867,1856,1851
382949,1865,1856,1851
382959,1866,1856,1856
382969,1867,1856,1851
382979,1861,1854,1855
382989,1866,1854,1855
382999,1861,1854,1850
383009,1858,1856,1850
383019,1856,1857,1846
383029,1857,1853,1847
383039,1860,1851,1844
383049,1861,1855,1841
383059,1861,1851,1841
383069,1861,1851,1841
383079,1857,1853,1840
383089,1859,1855,1843
383099,1857,1851,1840
383109,1858,1855,1840
383119,1856,1856,1838
383129,1860,1857,1841
383139,1859,1855,1840
383149,1861,1856,1842
383159,1859,1853,1840
383169,1860,1855,1838
383179,1859,1852,1839
383189,1856,1852,1842
383199,1861,1856,1842
383209,1860,1855,1842
383219,1861,1856,1841
383229,1862,1854,1844
383239,1859,1851,1842
383249,1858,1853,1841
383259,1857,1855,1845
383269,1858,1856,1840
383279,1863,1855,1843
383289,1863,1853,1845
383299,1865,1847,1843
383309,1863,1853,1843
383319,1861,1856,1846
383329,1861,1857,1840
383339,1865,1858,1846
383349,1861,1855,1843
383359,1859,1856,1845
383369,1862,1851,1850
383379,1867,1858,1851
383389,1870,1861,1857
383399,1872,1863,1867
383409,1873,1865,1872
383419,1879,1867,1877
383429,1883,1871,1889
383439,1889,1868,1898
383449,1894,1868,1904
383459,1901,1872,1910
383469,1895,1873,1915
383479,1901,1873,1919
383489,1900,1872,1923
383499,1903,1870,1922
383509,1900,1868,1920
383519,1897,1870,1918
383529,1891,1867,1909
383539,1887,1861,1903
383549,1882,1869,1894
383559,1877,1860,1889
383569,1873,1862,1879
383579,1872,1857,1875
383589,1871,1855,1872
383599,1863,1857,1866
383609,1866,1856,1861
383619,1861,1854,1856
383629,1856,1856,1850
383639,1855,1854,1843
383649,1855,1855,1844
383659,1855,1851,1840
383669,1856,1855,1841
383679,1857,1853,1840
383689,1857,1851,1842
383699,1854,1854,1840
383709,1855,1857,1844
383719,1861,1855,1843
383729,1859,1858,1845
383739,1861,1856,1844
383749,1863,1861,1854
383759,1863,1853,1854
383769,1866,1856,1855
383779,1862,1854,1857
383789,1865,1857,1853
383799,1869,1856,1858
383809,1863,1854,1856
383819,1871,1853,1851
383829,1866,1855,1856
383839,1863,1854,1853
383849,1866,1855,1844
383859,1862,1856,1847
383869,1863,1854,1847
383879,1863,1852,1845
383889,1865,1852,1844
383899,1857,1854,1840
383909,1859,1851,1840
383919,1858,1854,1841
383929,1859,1855,1842
383939,1858,1855,1840
383949,1860,1853,1840
383959,1861,1858,1840
383969,1866,1858,1840
383979,1862,1854,1840
383989,1862,1856,1840
383999,1862,1853,1840
384009,1863,1856,1840
384019,1863,1857,1841
384029,1857,1856,1842
384039,1858,1857,1841
384049,1859,1851,1840
384059,1863,1851,1843
384069,1866,1853,1841
384079,1861,1851,1843
384089,1865,1854,1844
384099,1863,1856,1846
384109,1863,1853,1843
384119,1863,1859,1843
384129,1861,1852,1841
384139,1861,1856,1841
384149,1858,1857,1842
384159,1860,1856,1842
384169,1862,1856,1846
384179,1862,1861,1857
384189,1862,1868,1844
384199,1858,1859,1854
384209,1869,1853,1856
384219,1872,1863,1863
384229,1875,1865,1871
384239,1883,1861,1881
384249,1889,1867,1889
384259,1891,1872,1895
384269,1893,1872,1904
384279,1902,1873,1910
384289,1901,1872,1917
384299,1903,1872,1925
384309,1901,1874,1923
384319,1903,1869,1923
384329,1901,1870,1927
384339,1899,1870,1919
384349,1893,1870,1917
384359,1895,1867,1908
384369,1886,1860,1904
384379,1882,1857,1899
384389,1879,1861,1894
384399,1875,1859,1887
384409,1872,1859,1872
384419,1871,1859,1868
384429,1867,1858,1861
384439,1863,1856,1859
384449,1858,1856,1852
384459,1856,1850,1842
384469,1856,1854,1843
384479,1857,1852,1840
384489,1854,1851,1841
384499,1856,1850,1839
384509,1856,1853,1840
384519,1858,1854,1840
384529,1860,1855,1840
384539,1861,1855,1842
384549,1862,1847,1846
384559,1863,1855,1847
384569,1862,1856,1851
384579,1863,1856,1854
384589,1865,1860,1852
384599,1862,1856,1857
384609,1867,1855,1854
384619,1866,1856,1855
384629,1865,1855,1853
384639,1863,1857,1853
384649,1862,1859,1851
384659,1861,1856,1847
384669,1862,1851,1845
384679,1863,1856,1847
384689,1858,1857,1847
384699,1861,1851,1845
384709,1859,1853,1844
384719,1856,1849,1843
384729,1858,1851,1842
384739,1856,1853,1840
384749,1859,1854,1840
384759,1859,1854,1840
384769,1860,1856,1840
384779,1856,1854,1841
384789,1857,1854,1840
384799,1857,1853,1839
384809,1857,1856,1840
384819,1859,1855,1842
384829,1859,1851,1840
384839,1857,1855,1840
384849,1858,1854,1840
384859,1857,1856,1842
384869,1862,1853,1840
384879,1859,1856,1842
384889,1861,1854,1840
384899,1863,1856,1841
384909,1863,1856,1841
384919,1862,1854,1843
384929,1862,1851,1843
384939,1865,1857,1846
384949,1869,1854,1842
384959,1861,1853,1843
384969,1865,1856,1841
384979,1862,1854,1845
384989,1867,1853,1841
384999,1863,1856,1843
385009,1866,1856,1847
385019,1868,1859,1851
385029,1872,1861,1856
385039,1873,1867,1865
385049,1877,1861,1871
385059,1883,1862,1882
385069,1886,1869,1890
385079,1889,1865,1901
385089,1893,1874,1904
385099,1894,1874,1911
385109,1902,1872,1919
385119,1902,1874,1922
385129,1902,1872,1921
385139,1899,1872,1920
385149,1897,1869,1920
385159,1891,1868,1918
385169,1889,1866,1911
385179,1885,1862,1904
385189,1883,1861,1901
385199,1875,1856,1888
385209,1874,1859,1887
385219,1871,1856,1876
385229,1870,1855,1871
385239,1865,1856,1863
385249,1863,1854,1858
385259,1863,1850,1853
385269,1855,1854,1849
385279,1856,1849,1845
385289,1853,1847,1844
385299,1855,1855,1840
385309,1857,1850,1840
385319,1857,1855,1840
385329,1862,1856,1841
385339,1860,1855,1840
385349,1859,1855,1846
385359,1859,1855,1845
385369,1862,1855,1846
385379,1861,1857,1851
385389,1866,1858,1851
385399,1867,1857,1857
385409,1863,1860,1856
385419,1865,1858,1853
385429,1866,1858,1856
385439,1868,1858,1855
385449,1862,1858,1855
385459,1863,1855,1855
385469,1862,1852,1844
385479,1865,1857,1850
385489,1859,1856,1853
385499,1860,1854,1852
385509,1859,1854,1849
385519,1858,1853,1843
385529,1862,1851,1842
385539,1857,1851,1843
385549,1859,1855,1840
385559,1857,1853,1841
385569,1861,1850,1841
385579,1853,1850,1839
385589,1857,1852,1836
385599,1856,1854,1840
385609,1857,1851,1840
385619,1856,1849,1840
385629,1860,1854,1840
385639,1856,1857,1840
385649,1860,1853,1840
385659,1863,1855,1841
385669,1862,1856,1840
385679,1863,1856,1841
385689,1863,1856,1840
385699,1863,1858,1839
385709,1862,1856,1841
385719,1861,1852,1841
385729,1865,1855,1841
385739,1861,1854,1840
385749,1860,1855,1840
385759,1861,1856,1840
385769,1861,1857,1840
385779,1863,1855,1841
385789,1863,1856,1843
385799,1862,1856,1845
385809,1869,1855,1847
385819,1870,1857,1854
385829,1870,1861,1858
385839,1872,1861,1870
385849,1879,1866,1873
385859,1879,1865,1884
385869,1885,1872,1891
385879,1890,1869,1901
385889,1893,1870,1904
385899,1899,1872,1914
385909,1898,1872,1917
385919,1898,1869,1917
385929,1895,1871,1916
385939,1894,1870,1916
385949,1889,1866,1913
385959,1889,1863,1904
385969,1886,1864,1904
385979,1882,1858,1899
385989,1878,1857,1894
385999,1872,1858,1886
386009,1872,1856,1875
386019,1867,1857,1872
386029,1867,1855,1867
386039,1861,1855,1862
386049,1862,1856,1858
386059,1856,1853,1852
386069,1855,1855,1843
386079,1856,1851,1842
386089,1854,1852,1843
386099,1856,1853,1843
386109,1855,1849,1840
386119,1859,1852,1840
386129,1858,1849,1840
386139,1858,1855,1843
386149,1863,1855,1849
386159,1863,1856,1846
386169,1863,1857,1847
386179,1869,1856,1846
386189,1863,1854,1853
386199,1869,1854,1853
386209,1868,1856,1854
386219,1863,1856,1856
386229,1867,1857,1853
386239,1866,1851,1855
386249,1863,1856,1854
386259,1863,1856,1853
386269,1866,1854,1852
386279,1865,1853,1851
386289,1863,1857,1853
386299,1866,1853,1852
386309,1856,1855,1845
386319,1860,1854,1844
386329,1858,1855,1843
386339,1859,1850,1846
386349,1859,1853,1841
386359,1861,1855,1841
386369,1859,1855,1840
386379,1858,1851,1840
386389,1862,1855,1843
386399,1862,1856,1840
386409,1865,1853,1841
386419,1857,1855,1840
386429,1859,1851,1841
386439,1859,1856,1840
386449,1865,1856,1840
386459,1862,1853,1846
386469,1861,1855,1841
386479,1865,1857,1845
386489,1861,1858,1843
386499,1863,1857,1847
386509,1863,1855,1842
386519,1863,1853,1844
386529,1867,1856,1843
386539,1865,1860,1843
386549,1861,1855,1849
386559,1866,1855,1848
386569,1865,1857,1854
386579,1865,1859,1856
386589,1872,1859,1861
386599,1874,1863,1872
386609,1878,1863,1876
386619,1882,1870,1885
386629,1887,1869,1891
386639,1890,1871,1901
386649,1892,1872,1906
386659,1899,1872,1911
386669,1898,1868,1911
386679,1899,1870,1919
386689,1894,1872,1919
386699,1894,1870,1914
386709,1894,1863,1913
386719,1890,1867,1910
386729,1884,1863,1904
386739,1883,1863,1900
386749,1879,1859,1898
386759,1878,1859,1887
386769,1873,1858,1877
386779,1869,1856,1875
386789,1869,1857,1869
386799,1867,1854,1866
386809,1862,1855,1858
386819,1858,1851,1856
386829,1863,1854,1852
386839,1861,1856,1844
386849,1858,1856,1840
386859,1856,1853,1848
386869,1859,1850,1840
386879,1858,1847,1843
386889,1858,1847,1841
386899,1859,1856,1844
386909,1866,1858,1846
386919,1865,1856,1847
386929,1862,1856,1849
386939,1866,1856,1852
386949,1867,1855,1855
386959,1863,1856,1854
386969,1866,1856,1855
386979,1866,1855,1857
386989,1869,1856,1856
386999,1863,1859,1851
387009,1867,1856,1856
387019,1863,1855,1851
387029,1865,1851,1854
387039,1863,1854,1853
387049,1861,1858,1851
387059,1865,1854,1851
387069,1861,1858,1850
387079,1860,1857,1849
387089,1859,1853,1845
387099,1858,1851,1842
387109,1861,1853,1845
387119,1857,1851,1840
387129,1863,1851,1841
387139,1858,1853,1840
387149,1857,1855,1843
387159,1860,1852,1843
387169,1857,1853,1841
387179,1860,1855,1840
387189,1864,1854,1843
387199,1862,1854,1841
387209,1861,1852,1839
387219,1863,1851,1840
387229,1861,1854,1841
387239,1863,1858,1841
387249,1860,1858,1843
387259,1859,1853,1840
387269,1861,1854,1845
387279,1861,1858,1845
387289,1865,1850,1849
387299,1860,1856,1846
387309,1863,1858,1846
387319,1867,1859,1853
387329,1871,1858,1859
387339,1872,1863,1862
387349,1872,1859,1872
387359,1877,1866,1879
387369,1883,1869,1884
387379,1891,1872,1895
387389,1895,1871,1904
387399,1899,1872,1909
387409,1899,1872,1914
387419,1901,1871,1919
387429,1903,1872,1914
387439,1901,1872,1919
387449,1897,1862,1914
387459,1895,1870,1911
387469,1891,1868,1910
387479,1892,1867,1904
387489,1890,1861,1899
387499,1882,1859,1891
387509,1881,1862,1885
387519,1877,1858,1876
387529,1874,1854,1872
387539,1870,1854,1863
387549,1867,1846,1858
387559,1867,1851,1856
387569,1861,1851,1846
387579,1859,1854,1844
387589,1857,1853,1841
387599,1856,1854,1839
387609,1853,1848,1835
387619,1858,1847,1839
387629,1857,1853,1837
387639,1857,1851,1840
387649,1858,1849,1840
387659,1859,1857,1843
387669,1861,1854,1840
387679,1859,1856,1843
387689,1865,1857,1844
387699,1863,1859,1851
387709,1865,1856,1850
387719,1866,1858,1853
387729,1866,1855,1853
387739,1866,1856,1854
387749,1866,1859,1854
387759,1863,1856,1853
387769,1864,1857,1854
387779,1861,1855,1847
387789,1861,1855,1846
387799,1859,1856,1846
387809,1861,1851,1846
387819,1859,1855,1844
387829,1860,1853,1840
387839,1863,1853,1842
387849,1861,1855,1840
387859,1860,1851,1842
387869,1860,1852,1841
387879,1862,1855,1844
387889,1863,1855,1840
387899,1857,1854,1840
387909,1858,1856,1841
387919,1861,1857,1847
387929,1857,1850,1835
387939,1863,1857,1840
387949,1860,1858,1840
387959,1861,1855,1842
387969,1858,1857,1846
387979,1856,1855,1843
387989,1859,1859,1842
387999,1861,1856,1845
388009,1858,1855,1840
388019,1862,1847,1846
388029,1860,1857,1841
388039,1866,1856,1842
388049,1862,1857,1841
388059,1865,1856,1846
388069,1867,1855,1847
388079,1866,1858,1855
388089,1874,1861,1860
388099,1873,1862,1865
388109,1878,1863,1873
388119,1882,1870,1877
388129,1888,1869,1889
388139,1893,1871,1902
388149,1895,1872,1905
388159,1898,1872,1914
388169,1897,1872,1918
388179,1894,1873,1919
388189,1903,1867,1919
388199,1893,1872,1918
388209,1893,1868,1913
388219,1893,1867,1910
388229,1887,1867,1907
388239,1885,1862,1903
388249,1877,1858,1895
388259,1875,1856,1888
388269,1874,1856,1884
388279,1872,1860,1872
388289,1866,1855,1869
388299,1870,1856,1863
388309,1856,1856,1854
388319,1862,1853,1851
388329,1855,1851,1847
388339,1856,1851,1843
388349,1857,1855,1840
388359,1856,1851,1840
388369,1858,1845,1839
388379,1856,1850,1840
388389,1858,1849,1840
388399,1858,1855,1842
388409,1856,1853,1842
388419,1861,1857,1843
388429,1867,1855,1847
388439,1859,1856,1847
388449,1862,1856,1851
388459,1862,1858,1854
388469,1865,1856,1854
388479,1867,1856,1856
388489,1863,1862,1854
388499,1866,1854,1849
388509,1866,1855,1855
388519,1866,1857,1855
388529,1861,1856,1850
388539,1859,1855,1846
388549,1867,1856,1846
388559,1863,1853,1846
388569,1862,1851,1843
388579,1859,1856,1842
388589,1862,1851,1843
388599,1858,1856,1843
388609,1862,1849,1840
388619,1857,1854,1841
388629,1856,1851,1841
388639,1857,1853,1843
388649,1865,1856,1842
388659,1858,1854,1840
388669,1861,1851,1842
388679,1861,1856,1843
388689,1860,1853,1843
388699,1859,1853,1840
388709,1861,1854,1842
388719,1862,1857,1840
388729,1862,1853,1841
388739,1862,1850,1840
388749,1860,1853,1840
388759,1862,1852,1844
388769,1865,1853,1845
388779,1862,1854,1846
388789,1861,1859,1849
388799,1867,1862,1851
388809,1870,1859,1860
388819,1875,1863,1865
388829,1878,1866,1872
388839,1885,1865,1881
388849,1888,1868,1889
388859,1893,1871,1899
388869,1895,1870,1910
388879,1897,1872,1914
388889,1895,1872,1917
388899,1895,1873,1920
388909,1900,1873,1917
388919,1898,1871,1919
388929,1895,1867,1911
388939,1889,1869,1910
388949,1885,1858,1907
388959,1882,1863,1901
388969,1877,1863,1900
388979,1874,1861,1890
388989,1872,1858,1884
388999,1871,1857,1872
389009,1870,1858,1870
389019,1863,1854,1863
389029,1859,1851,1857
389039,1861,1855,1855
389049,1857,1850,1846
389059,1858,1850,1842
389069,1857,1847,1840
389079,1856,1851,1840
389089,1856,1851,1840
389099,1857,1853,1840
389109,1862,1858,1841
389119,1856,1851,1845
389129,1859,1854,1845
389139,1858,1853,1845
389149,1861,1854,1847
389159,1861,1857,1850
389169,1867,1854,1853
389179,1866,1854,1854
389189,1867,1859,1855
389199,1862,1856,1856
389209,1868,1856,1856
389219,1862,1858,1855
389229,1869,1857,1855
389239,1863,1858,1851
389249,1861,1857,1850
389259,1860,1856,1853
389269,1863,1854,1847
389279,1863,1856,1844
389289,1859,1849,1842
389299,1859,1854,1840
389309,1861,1854,1840
389319,1858,1851,1840
389329,1854,1856,1839
389339,1860,1853,1840
389349,1858,1857,1839
389359,1856,1855,1839
389369,1858,1854,1842
389379,1861,1854,1843
389389,1858,1853,1845
389399,1860,1854,1842
389409,1860,1854,1845
389419,1858,1852,1843
389429,1860,1851,1842
389439,1862,1855,1845
389449,1861,1856,1842
389459,1862,1854,1845
389469,1861,1856,1845
389479,1859,1856,1845
389489,1858,1856,1847
389499,1863,1853,1843
389509,1865,1862,1847
389519,1869,1859,1846
389529,1872,1858,1854
389539,1869,1862,1858
389549,1872,1863,1866
389559,1876,1862,1873
389569,1881,1863,1879
389579,1889,1871,1889
389589,1893,1869,1895
389599,1891,1872,1905
389609,1899,1872,1911
389619,1904,1873,1918
389629,1903,1872,1923
389639,1904,1872,1922
389649,1900,1873,1920
389659,1904,1872,1918
389669,1900,1868,1915
389679,1895,1869,1907
389689,1895,1868,1905
389699,1887,1862,1904
389709,1882,1861,1896
389719,1877,1861,1879
389729,1874,1859,1877
389739,1872,1859,1872
389749,1872,1859,1870
389759,1871,1856,1859
389769,1862,1852,1858
389779,1859,1854,1851
389789,1859,1850,1852
389799,1856,1854,1845
389809,1855,1847,1840
389819,1856,1853,1840
389829,1856,1855,1840
389839,1853,1853,1840
389849,1858,1856,1838
389859,1858,1855,1842
389869,1859,1857,1843
389879,1861,1855,1845
389889,1865,1855,1849
389899,1861,1856,1850
389909,1867,1858,1850
389919,1869,1856,1845
389929,1867,1854,1855
389939,1871,1857,1855
389949,1870,1856,1856
389959,1869,1854,1854
389969,1869,1856,1855
389979,1867,1855,1851
389989,1866,1856,1852
389999,1866,1852,1851
390009,1865,1856,1850
390019,1863,1856,1847
390029,1861,1856,1842
390039,1863,1854,1847
390049,1862,1856,1840
390059,1858,1852,1843
390069,1862,1853,1841
390079,1858,1851,1842
390089,1860,1853,1845
390099,1855,1849,1843
390109,1858,1857,1841
390119,1863,1853,1844
390129,1854,1856,1841
390139,1862,1856,1845
390149,1858,1856,1845
390159,1861,1853,1842
390169,1859,1854,1841
390179,1862,1857,1845
390189,1863,1858,1843
390199,1861,1856,1841
390209,1862,1858,1844
390219,1863,1852,1845
390229,1862,1854,1844
390239,1862,1857,1842
390249,1863,1857,1843
390259,1863,1855,1849
390269,1866,1854,1849
390279,1868,1862,1853
390289,1871,1864,1856
390299,1873,1863,1863
390309,1881,1865,1870
390319,1883,1867,1878
390329,1892,1867,1885
390339,1895,1872,1893
390349,1900,1872,1904
390359,1904,1875,1906
390369,1906,1872,1914
390379,1904,1874,1915
390389,1904,1873,1917
390399,1904,1873,1917
390409,1904,1870,1914
390419,1899,1871,1912
390429,1897,1872,1909
390439,1892,1869,1904
390449,1891,1866,1895
390459,1885,1859,1890
390469,1875,1861,1885
390479,1879,1858,1878
390489,1870,1856,1872
390499,1871,1856,1866
390509,1863,1853,1858
390519,1860,1855,1856
390529,1862,1851,1847
390539,1855,1854,1847
390549,1856,1851,1840
390559,1854,1847,1840
390569,1856,1853,1840
390579,1857,1849,1843
390589,1857,1851,1840
390599,1857,1851,1842
390609,1859,1854,1843
390619,1856,1853,1840
390629,1861,1856,1847
390639,1862,1857,1847
390649,1863,1855,1847
390659,1863,1858,1851
390669,1869,1856,1853
390679,1868,1858,1849
390689,1866,1858,1852
390699,1869,1859,1853
390709,1863,1855,1851
390719,1867,1856,1844
390729,1863,1855,1852
390739,1863,1854,1851
390749,1862,1854,1847
390759,1860,1850,1843
390769,1865,1853,1845
390779,1859,1852,1843
390789,1859,1852,1840
390799,1859,1854,1843
390809,1861,1855,1840
390819,1856,1856,1841
390829,1856,1852,1842
390839,1856,1853,1840
390849,1857,1853,1839
390859,1857,1855,1840
390869,1856,1853,1840
390879,1862,1855,1840
390889,1862,1852,1840
390899,1860,1853,1842
390909,1863,1856,1843
390919,1863,1855,1843
390929,1859,1854,1843
390939,1862,1856,1843
390949,1860,1855,1842
390959,1857,1854,1843
390969,1862,1854,1843
390979,1858,1855,1843
390989,1857,1853,1843
390999,1858,1855,1840
391009,1859,1856,1840
391019,1860,1850,1840
391029,1860,1857,1845
391039,1862,1853,1845
391049,1871,1862,1854
391059,1872,1860,1857
391069,1873,1860,1863
391079,1874,1863,1871
391089,1885,1863,1879
391099,1895,1869,1891
391109,1897,1872,1898
391119,1893,1872,1902
391129,1899,1870,1904
391139,1895,1872,1910
391149,1903,1872,1914
391159,1903,1872,1914
391169,1899,1868,1917
391179,1895,1872,1907
391189,1893,1872,1907
391199,1889,1870,1904
391209,1887,1859,1902
391219,1879,1861,1892
391229,1882,1862,1890
391239,1875,1863,1879
391249,1870,1856,1872
391259,1871,1856,1870
391269,1865,1855,1860
391279,1862,1853,1859
391289,1860,1854,1854
391299,1858,1851,1849
391309,1856,1855,1840
391319,1855,1853,1841
391329,1855,1854,1840
391339,1857,1853,1840
391349,1859,1857,1835
391359,1857,1858,1840
391369,1856,1854,1841
391379,1861,1859,1841
391389,1862,1856,1843
391399,1861,1857,1849
391409,1863,1855,1845
391419,1865,1858,1851
391429,1867,1857,1849
391439,1865,1853,1847
391449,1865,1856,1853
391459,1862,1856,1855
391469,1865,1856,1847
391479,1869,1858,1851
391489,1863,1855,1850
391499,1865,1857,1849
391509,1862,1853,1847
391519,1858,1858,1849
391529,1863,1855,1846
391539,1856,1851,1840
391549,1851,1856,1843
391559,1859,1855,1843
391569,1859,1851,1842
391579,1856,1855,1840
391589,1856,1857,1841
391599,1855,1854,1842
391609,1862,1855,1841
391619,1859,1853,1840
391629,1859,1853,1841
391639,1861,1850,1840
391649,1859,1858,1840
391659,1863,1855,1844
391669,1861,1852,1843
391679,1879,1855,1841
391689,1863,1855,1842
391699,1863,1857,1841
391709,1858,1859,1843
391719,1860,1851,1844
391729,1865,1855,1842
391739,1860,1853,1843
391749,1861,1855,1842
391759,1863,1856,1847
391769,1866,1855,1843
391779,1863,1854,1853
391789,1863,1855,1849
391799,1866,1856,1851
391809,1872,1857,1856
391819,1872,1858,1866
391829,1873,1861,1870
391839,1882,1867,1874
391849,1887,1869,1887
391859,1890,1869,1895
391869,1895,1871,1902
391879,1899,1872,1910
391889,1901,1875,1911
391899,1907,1874,1917
391909,1904,1872,1920
391919,1903,1872,1918
391929,1902,1872,1917
391939,1899,1863,1917
391949,1897,1866,1907
391959,1889,1866,1904
391969,1889,1866,1902
391979,1883,1864,1892
391989,1882,1862,1888
391999,1872,1858,1876
392009,1872,1854,1872
392019,1867,1856,1867
392029,1862,1858,1863
392039,1864,1853,1856
392049,1859,1851,1850
392059,1854,1850,1851
392069,1856,1849,1843
392079,1855,1846,1840
392089,1853,1850,1836
392099,1855,1854,1838
392109,1856,1854,1840
392119,1854,1851,1840
392129,1855,1854,1840
392139,1856,1854,1846
392149,1861,1851,1845
392159,1859,1856,1843
392169,1861,1856,1850
392179,1863,1856,1846
392189,1864,1859,1851
392199,1866,1856,1850
392209,1858,1858,1854
392219,1866,1857,1853
392229,1863,1854,1850
392239,1859,1856,1850
392249,1866,1851,1846
392259,1863,1853,1853
392269,1866,1857,1843
392279,1860,1856,1846
392289,1859,1854,1840
392299,1858,1855,1845
392309,1855,1852,1840
392319,1857,1851,1840
392329,1855,1854,1840
392339,1857,1852,1841
392349,1856,1855,1840
392359,1856,1855,1838
392369,1855,1853,1840
392379,1855,1853,1840
392389,1856,1854,1840
392399,1859,1849,1840
392409,1857,1855,1839
392419,1856,1851,1839
392429,1859,1853,1840
392439,1859,1854,1840
392449,1858,1855,1840
392459,1861,1856,1840
392469,1857,1853,1846
392479,1861,1853,1840
392489,1863,1854,1840
392499,1861,1851,1841
392509,1861,1851,1840
392519,1861,1854,1841
392529,1859,1856,1840
392539,1860,1856,1841
392549,1862,1856,1841
392559,1861,1854,1840
392569,1863,1856,1841
392579,1863,1854,1845
392589,1869,1857,1856
392599,1872,1858,1863
392609,1874,1867,1869
392619,1878,1869,1874
392629,1888,1868,1886
392639,1893,1872,1898
392649,1892,1872,1902
392659,1899,1873,1909
392669,1899,1869,1918
392679,1904,1872,1919
392689,1899,1872,1922
392699,1903,1872,1923
392709,1902,1872,1920
392719,1900,1872,1919
392729,1893,1866,1906
392739,1891,1867,1905
392749,1884,1862,1903
392759,1883,1860,1898
392769,1881,1859,1890
392779,1874,1857,1885
392789,1872,1855,1877
392799,1867,1856,1870
392809,1863,1854,1867
392819,1862,1856,1859
392829,1856,1854,1853
392839,1856,1853,1849
392849,1855,1852,1843
392859,1849,1851,1842
392869,1854,1854,1842
392879,1857,1851,1841
392889,1856,1851,1842
392899,1861,1851,1840
392909,1859,1851,1840
392919,1863,1854,1841
392929,1860,1855,1843
392939,1862,1857,1848
392949,1860,1856,1854
392959,1867,1856,1853
392969,1867,1856,1852
392979,1866,1857,1853
392989,1869,1858,1857
392999,1867,1858,1853
393009,1869,1854,1855
393019,1863,1859,1856
393029,1865,1856,1853
393039,1862,1855,1849
393049,1866,1854,1851
393059,1866,1856,1847
393069,1861,1851,1844
393079,1856,1855,1843
393089,1859,1858,1843
393099,1859,1852,1842
393109,1857,1856,1843
393119,1857,1857,1840
393129,1857,1853,1841
393139,1858,1847,1840
393149,1861,1856,1841
393159,1858,1852,1840
393169,1859,1853,1840
393179,1861,1855,1841
393189,1862,1855,1843
393199,1859,1855,1841
393209,1863,1852,1841
393219,1860,1856,1843
393229,1861,1853,1842
393239,1861,1856,1841
393249,1862,1857,1841
393259,1861,1854,1841
393269,1857,1854,1843
393279,1859,1856,1843
393289,1866,1853,1840
393299,1863,1851,1840
393309,1863,1856,1842
393319,1863,1856,1843
393329,1862,1855,1843
393339,1869,1856,1849
393349,1863,1859,1854
393359,1872,1859,1859
393369,1874,1866,1861
393379,1882,1870,1872
393389,1886,1868,1881
393399,1886,1865,1894
393409,1898,1872,1903
393419,1899,1873,1904
393429,1903,1873,1914
393439,1904,1873,1915
393449,1904,1873,1920
393459,1904,1875,1920
393469,1904,1871,1918
393479,1897,1871,1916
393489,1897,1872,1913
393499,1893,1869,1906
393509,1892,1866,1904
393519,1887,1859,1900
393529,1880,1861,1890
393539,1877,1861,1887
393549,1873,1859,1878
393559,1871,1856,1870
393569,1867,1857,1869
393579,1862,1852,1861
393589,1864,1855,1856
393599,1856,1855,1853
393609,1857,1847,1846
393619,1855,1851,1842
393629,1851,1853,1840
393639,1855,1855,1841
393649,1855,1857,1842
393659,1856,1850,1840
393669,1859,1854,1842
393679,1861,1851,1846
393689,1858,1855,1843
393699,1860,1855,1847
393709,1859,1855,1850
393719,1860,1853,1850
393729,1869,1855,1851
393739,1863,1856,1855
393749,1863,1858,1852
393759,1866,1858,1851
393769,1867,1858,1852
393779,1862,1857,1850
393789,1861,1853,1849
393799,1863,1856,1846
393809,1863,1855,1849
393819,1862,1853,1846
393829,1857,1855,1843
393839,1857,1855,1841
393849,1859,1856,1842
393859,1859,1851,1840
393869,1859,1855,1842
393879,1856,1855,1841
393889,1856,1849,1841
393899,1862,1854,1840
393909,1860,1854,1840
393919,1856,1854,1837
393929,1854,1851,1840
393939,1857,1854,1840
393949,1857,1855,1841
393959,1859,1851,1840
393969,1859,1854,1843
393979,1862,1847,1840
393989,1863,1855,1840
393999,1859,1855,1840
394009,1861,1858,1843
394019,1862,1853,1843
394029,1861,1853,1841
394039,1861,1855,1844
394049,1863,1853,1840
394059,1858,1859,1841
394069,1862,1856,1842
394079,1863,1855,1840
394089,1865,1856,1843
394099,1862,1857,1840
394109,1863,1857,1846
394119,1862,1856,1847
394129,1872,1858,1856
394139,1872,1858,1858
394149,1875,1859,1870
394159,1873,1863,1877
394169,1889,1869,1883
394179,1889,1872,1894
394189,1897,1872,1904
394199,1899,1874,1910
394209,1899,1874,1919
394219,1902,1874,1919
394229,1904,1872,1925
394239,1904,1874,1927
394249,1904,1872,1923
394259,1897,1869,1919
394269,1899,1869,1919
394279,1891,1863,1909
394289,1890,1863,1909
394299,1888,1861,1901
394309,1882,1855,1890
394319,1876,1859,1891
394329,1872,1855,1879
394339,1872,1855,1877
394349,1869,1853,1870
394359,1863,1857,1862
394369,1861,1856,1854
394379,1859,1853,1850
394389,1856,1855,1851
394399,1855,1854,1845
394409,1857,1855,1841
394419,1849,1847,1843
394429,1856,1853,1840
394439,1854,1853,1845
394449,1855,1853,1843
394459,1856,1855,1845
394469,1859,1855,1843
394479,1863,1856,1850
394489,1861,1857,1847
394499,1867,1859,1853
394509,1866,1856,1853
394519,1863,1856,1871
394529,1861,1852,1851
394539,1863,1854,1854
394549,1867,1853,1854
394559,1861,1854,1856
394569,1862,1855,1850
394579,1866,1858,1855
394589,1860,1857,1845
394599,1862,1855,1849
394609,1856,1856,1843
394619,1858,1853,1842
394629,1858,1849,1845
394639,1854,1854,1841
394649,1859,1855,1840
394659,1858,1853,1844
394669,1859,1861,1837
394679,1855,1850,1840
394689,1856,1854,1839
394699,1861,1855,1840
394709,1858,1853,1840
394719,1859,1854,1840
394729,1860,1855,1839
394739,1858,1855,1856
394749,1859,1845,1842
394759,1859,1859,1840
394769,1861,1856,1835
394779,1861,1855,1842
394789,1859,1857,1841
394799,1857,1855,1841
394809,1859,1856,1840
394819,1866,1858,1845
394829,1863,1856,1842
394839,1862,1851,1842
394849,1862,1855,1842
394859,1863,1855,1840
394869,1860,1857,1840
394879,1863,1855,1842
394889,1863,1855,1840
394899,1867,1855,1842
394909,1863,1854,1843
394919,1869,1857,1850
394929,1871,1858,1847
394939,1872,1865,1870
394949,1879,1869,1873
394959,1885,1871,1887
394969,1888,1869,1890
394979,1893,1869,1904
394989,1898,1873,1907
394999,1901,1870,1909
395009,1901,1872,1914
395019,1903,1872,1915
395029,1901,1872,1919
395039,1900,1868,1916
395049,1898,1870,1917
395059,1892,1863,1911
395069,1890,1865,1905
395079,1885,1859,1904
395089,1883,1860,1891
395099,1873,1861,1886
395109,1872,1856,1883
395119,1870,1858,1873
395129,1870,1852,1871
395139,1863,1853,1858
395149,1863,1852,1859
395159,1857,1851,1853
395169,1855,1851,1845
395179,1855,1849,1843
395189,1854,1856,1840
395199,1851,1850,1838
395209,1856,1847,1840
395219,1856,1854,1840
395229,1855,1854,1840
395239,1854,1853,1840
395249,1858,1853,1843
395259,1858,1855,1844
395269,1862,1859,1846
395279,1863,1856,1849
395289,1865,1855,1851
395299,1867,1856,1853
395309,1861,1855,1855
395319,1865,1855,1854
395329,1867,1856,1850
395339,1863,1855,1853
395349,1862,1859,1854
395359,1866,1857,1851
395369,1861,1857,1851
395379,1866,1851,1853
395389,1865,1853,1846
395399,1866,1855,1850
395409,1862,1857,1842
395419,1862,1850,1847
395429,1856,1854,1843
395439,1862,1856,1841
395449,1861,1857,1840
395459,1856,1851,1841
395469,1858,1850,1840
395479,1858,1851,1841
395489,1856,1854,1840
395499,1858,1853,1841
395509,1865,1857,1841
395519,1863,1855,1840
395529,1863,1856,1841
395539,1857,1856,1840
395549,1863,1854,1843
395559,1862,1857,1841
395569,1861,1852,1840
395579,1862,1852,1843
395589,1861,1851,1842
395599,1862,1857,1841
395609,1861,1856,1841
395619,1863,1853,1840
395629,1865,1852,1840
395639,1861,1855,1842
395649,1862,1856,1851
395659,1863,1855,1847
395669,1867,1857,1848
395679,1866,1857,1856
395689,1872,1860,1858
395699,1870,1866,1865
395709,1879,1865,1873
395719,1884,1869,1879
395729,1890,1870,1890
395739,1893,1872,1900
395749,1901,1872,1906
395759,1897,1874,1915
395769,1903,1872,1920
395779,1901,1872,1922
395789,1904,1872,1920
395799,1903,1871,1920
395809,1898,1871,1915
395819,1894,1867,1914
395829,1891,1863,1907
395839,1887,1866,1903
395849,1885,1864,1900
395859,1877,1857,1891
395869,1873,1857,1882
395879,1874,1858,1875
395889,1863,1854,1872
395899,1866,1851,1868
395909,1860,1853,1856
395919,1861,1853,1854
395929,1855,1855,1849
395939,1857,1853,1843
395949,1855,1854,1840
395959,1859,1856,1841
395969,1854,1854,1840
395979,1858,1854,1841
395989,1862,1847,1842
395999,1859,1857,1844
396009,1863,1854,1841
396019,1864,1855,1845
396029,1867,1855,1846
396039,1861,1856,1853
396049,1867,1856,1855
396059,1867,1857,1855
396069,1867,1859,1855
396079,1867,1857,1856
396089,1867,1857,1856
396099,1869,1858,1858
396109,1866,1860,1856
396119,1867,1856,1856
396129,1867,1855,1853
396139,1867,1855,1854
396149,1862,1852,1849
396159,1863,1853,1849
396169,1866,1855,1847
396179,1861,1852,1844
396189,1857,1855,1843
396199,1862,1851,1845
396209,1859,1854,1843
396219,1860,1854,1842
396229,1857,1851,1840
396239,1860,1855,1845
396249,1857,1851,1841
396259,1859,1855,1842
396269,1856,1855,1840
396279,1862,1854,1841
396289,1861,1854,1841
396299,1863,1855,1841
396309,1859,1850,1843
396319,1859,1856,1840
396329,1861,1855,1841
396339,1861,1856,1840
396349,1862,1854,1840
396359,1858,1853,1841
396369,1859,1853,1840
396379,1859,1855,1840
396389,1858,1853,1846
396399,1861,1856,1845
396409,1861,1855,1845
396419,1869,1856,1847
396429,1863,1862,1851
396439,1867,1857,1854
396449,1872,1862,1859
396459,1873,1868,1869
396469,1883,1867,1873
396479,1886,1869,1888
396489,1894,1872,1898
396499,1901,1872,1905
396509,1904,1872,1910
396519,1902,1871,1915
396529,1904,1872,1920
396539,1904,1872,1923
396549,1902,1872,1920
396559,1904,1866,1925
396569,1897,1870,1918
396579,1895,1871,1917
396589,1891,1867,1911
396599,1887,1866,1905
396609,1882,1865,1901
396619,1879,1859,1893
396629,1874,1862,1885
396639,1872,1857,1877
396649,1865,1855,1871
396659,1865,1855,1861
396669,1865,1857,1859
396679,1859,1850,1853
396689,1861,1853,1847
396699,1860,1849,1845
396709,1857,1854,1840
396719,1858,1855,1841
396729,1851,1851,1839
396739,1855,1851,1840
396749,1857,1852,1840
396759,1857,1854,1840
396769,1857,1855,1842
396779,1859,1857,1845
396789,1863,1856,1843
396799,1866,1853,1846
