timestamp_ms_device,ppg_finger1,ppg_finger2,ppg_finger3
1614724,1914,1898,1936
1614734,1907,1901,1941
1614744,1888,1899,1939
1614754,1904,1899,1934
1614764,1917,1911,1948
1614774,1911,1900,1939
1614784,1905,1895,1930
1614794,1873,1889,1911
1614804,1894,1893,1913
1614814,1903,1894,1908
1614824,1898,1893,1904
1614834,1885,1882,1895
1614844,1854,1872,1877
1614854,1878,1867,1870
1614864,1884,1875,1872
1614874,1877,1868,1866
1614884,1872,1867,1850
1614894,1826,1854,1840
1614904,1869,1858,1844
1614914,1872,1867,1853
1614924,1872,1861,1841
1614934,1867,1857,1840
1614944,1821,1840,1824
1614954,1873,1855,1841
1614964,1871,1859,1851
1614974,1868,1855,1846
1614984,1871,1858,1849
1614994,1836,1841,1827
1615004,1882,1870,1855
1615014,1866,1868,1862
1615024,1872,1866,1859
1615034,1872,1861,1861
1615044,1853,1845,1840
1615054,1872,1867,1871
1615064,1864,1860,1867
1615074,1876,1860,1867
1615084,1872,1867,1862
1615094,1878,1850,1853
1615104,1873,1863,1862
1615114,1873,1858,1859
1615124,1875,1859,1859
1615134,1869,1857,1855
1615144,1854,1858,1854
1615154,1858,1856,1852
1615164,1882,1867,1863
1615174,1871,1857,1850
1615184,1865,1861,1855
1615194,1841,1854,1844
1615204,1855,1850,1840
1615214,1866,1862,1857
1615224,1869,1863,1843
1615234,1865,1859,1847
1615244,1842,1853,1840
1615254,1855,1854,1837
1615264,1870,1862,1851
1615274,1869,1854,1847
1615284,1867,1858,1842
1615294,1838,1853,1840
1615304,1865,1847,1839
1615314,1872,1859,1847
1615324,1871,1857,1851
1615334,1867,1857,1843
1615344,1834,1841,1833
1615354,1872,1859,1845
1615364,1871,1861,1854
1615374,1870,1866,1847
1615384,1869,1863,1849
1615394,1830,1837,1829
1615404,1875,1866,1855
1615414,1861,1858,1851
1615424,1869,1861,1852
1615434,1870,1858,1846
1615444,1870,1845,1831
1615454,1872,1871,1857
1615464,1873,1858,1859
1615474,1886,1872,1870
1615484,1886,1871,1872
1615494,1882,1872,1889
1615504,1884,1879,1904
1615514,1919,1879,1913
1615524,1907,1890,1922
1615534,1910,1889,1931
1615544,1891,1889,1936
1615554,1899,1901,1936
1615564,1922,1914,1961
1615574,1914,1904,1947
1615584,1906,1904,1942
1615594,1880,1896,1935
1615604,1898,1889,1925
1615614,1906,1903,1933
1615624,1903,1894,1918
1615634,1895,1892,1907
1615644,1851,1876,1887
1615654,1890,1879,1888
1615664,1886,1881,1881
1615674,1883,1875,1872
1615684,1881,1873,1862
1615694,1834,1845,1837
1615704,1879,1866,1853
1615714,1859,1859,1851
1615724,1867,1859,1840
1615734,1869,1859,1836
1615744,1843,1837,1811
1615754,1872,1856,1840
1615764,1849,1856,1837
1615774,1865,1856,1840
1615784,1868,1859,1840
1615794,1875,1845,1829
1615804,1870,1859,1845
1615814,1875,1859,1841
1615824,1875,1863,1850
1615834,1875,1866,1855
1615844,1853,1860,1847
1615854,1863,1858,1851
1615864,1879,1874,1869
1615874,1875,1869,1857
1615884,1872,1866,1856
1615894,1855,1855,1847
1615904,1861,1856,1850
1615914,1876,1866,1861
1615924,1874,1866,1855
1615934,1872,1858,1851
1615944,1840,1853,1840
1615954,1872,1856,1845
1615964,1879,1858,1850
1615974,1877,1863,1850
1615984,1871,1859,1846
1615994,1831,1841,1830
1616004,1873,1855,1842
1616014,1866,1865,1850
1616024,1872,1863,1849
1616034,1867,1860,1840
1616044,1840,1835,1821
1616054,1877,1865,1853
1616064,1856,1856,1841
1616074,1872,1857,1844
1616084,1870,1858,1843
1616094,1857,1856,1850
1616104,1858,1858,1845
1616114,1883,1854,1849
1616124,1872,1865,1850
1616134,1871,1858,1843
1616144,1855,1851,1836
1616154,1855,1856,1843
1616164,1872,1865,1857
1616174,1872,1866,1850
1616184,1872,1856,1845
1616194,1829,1843,1839
1616204,1870,1851,1845
1616214,1872,1862,1854
1616224,1873,1863,1852
1616234,1869,1860,1851
1616244,1840,1839,1827
1616254,1881,1867,1860
1616264,1859,1861,1855
1616274,1875,1865,1859
1616284,1880,1863,1867
1616294,1879,1870,1873
1616304,1882,1872,1887
1616314,1909,1874,1903
1616324,1902,1881,1910
1616334,1904,1890,1923
1616344,1888,1880,1921
1616354,1895,1889,1933
1616364,1917,1910,1955
1616374,1914,1902,1946
1616384,1911,1897,1942
1616394,1881,1893,1936
1616404,1898,1890,1924
1616414,1905,1901,1931
1616424,1903,1893,1921
1616434,1898,1893,1914
1616444,1856,1870,1894
1616454,1889,1878,1898
1616464,1878,1879,1894
1616474,1881,1872,1882
1616484,1876,1874,1871
1616494,1838,1846,1843
1616504,1878,1870,1865
1616514,1857,1859,1854
1616524,1871,1861,1853
1616534,1863,1855,1842
1616544,1869,1840,1823
1616554,1863,1859,1846
1616564,1856,1853,1837
1616574,1869,1854,1840
1616584,1869,1855,1842
1616594,1845,1853,1847
1616604,1858,1856,1850
1616614,1883,1866,1863
1616624,1872,1866,1856
1616634,1872,1862,1856
1616644,1843,1856,1847
1616654,1872,1855,1854
1616664,1879,1869,1865
1616674,1877,1869,1868
1616684,1874,1865,1866
1616694,1838,1850,1842
1616704,1883,1862,1863
1616714,1872,1867,1866
1616724,1872,1862,1867
1616734,1872,1861,1859
1616744,1845,1840,1839
1616754,1872,1867,1862
1616764,1859,1855,1851
1616774,1874,1858,1855
1616784,1870,1858,1849
1616794,1866,1863,1848
1616804,1869,1861,1844
1616814,1863,1855,1840
1616824,1870,1852,1847
1616834,1867,1857,1847
1616844,1847,1846,1840
1616854,1845,1856,1838
1616864,1872,1862,1851
1616874,1872,1856,1849
1616884,1867,1855,1841
1616894,1835,1847,1840
1616904,1856,1856,1840
1616914,1872,1861,1851
1616924,1872,1856,1845
1616934,1870,1859,1849
1616944,1831,1838,1827
1616954,1873,1861,1852
1616964,1868,1862,1854
1616974,1872,1879,1851
1616984,1871,1856,1851
1616994,1843,1839,1826
1617004,1869,1865,1855
1617014,1856,1857,1843
1617024,1872,1859,1846
1617034,1867,1858,1850
1617044,1871,1859,1840
1617054,1868,1858,1851
1617064,1869,1859,1850
1617074,1877,1869,1864
1617084,1879,1866,1871
1617094,1868,1873,1881
1617104,1888,1872,1895
1617114,1911,1878,1905
1617124,1903,1886,1918
1617134,1904,1887,1929
1617144,1893,1887,1932
1617154,1905,1893,1936
1617164,1921,1907,1958
1617174,1918,1903,1947
1617184,1917,1904,1943
1617194,1887,1891,1934
1617204,1891,1890,1927
1617214,1911,1904,1937
1617224,1914,1895,1920
1617234,1898,1891,1913
1617244,1860,1875,1891
1617254,1872,1877,1883
1617264,1887,1887,1888
1617274,1884,1877,1877
1617284,1876,1872,1871
1617294,1838,1856,1840
1617304,1872,1864,1848
1617314,1868,1863,1846
1617324,1871,1859,1843
1617334,1870,1861,1841
1617344,1830,1841,1819
1617354,1872,1861,1836
1617364,1858,1855,1840
1617374,1881,1859,1842
1617384,1866,1856,1843
1617394,1838,1839,1823
1617404,1866,1862,1853
1617414,1857,1857,1851
1617424,1872,1859,1854
1617434,1871,1863,1856
1617444,1862,1843,1840
1617454,1872,1871,1863
1617464,1865,1858,1850
1617474,1877,1863,1860
1617484,1874,1865,1861
1617494,1871,1846,1840
1617504,1872,1870,1863
1617514,1857,1859,1855
1617524,1873,1863,1861
1617534,1870,1859,1857
1617544,1873,1847,1839
1617554,1872,1866,1856
1617564,1856,1855,1847
1617574,1870,1856,1854
1617584,1868,1858,1846
1617594,1859,1857,1843
1617604,1863,1858,1845
1617614,1868,1851,1840
1617624,1867,1856,1847
1617634,1867,1856,1843
1617644,1861,1858,1852
1617654,1862,1855,1841
1617664,1872,1855,1841
1617674,1872,1859,1851
1617684,1872,1857,1847
1617694,1844,1853,1843
1617704,1852,1855,1845
1617714,1879,1859,1854
1617724,1872,1856,1851
1617734,1872,1858,1847
1617744,1841,1843,1839
1617754,1851,1855,1840
1617764,1877,1866,1856
1617774,1870,1856,1851
1617784,1867,1858,1849
1617794,1840,1843,1841
1617804,1853,1856,1845
1617814,1879,1869,1861
1617824,1873,1863,1857
1617834,1877,1866,1861
1617844,1847,1855,1856
1617854,1866,1857,1872
1617864,1904,1881,1895
1617874,1898,1875,1904
1617884,1905,1879,1917
1617894,1872,1874,1914
1617904,1904,1883,1925
1617914,1914,1900,1938
1617924,1918,1901,1946
1617934,1918,1904,1950
1617944,1879,1885,1935
1617954,1911,1899,1939
1617964,1919,1904,1942
1617974,1911,1903,1935
1617984,1904,1900,1925
1617994,1861,1874,1894
1618004,1903,1888,1905
1618014,1886,1888,1901
1618024,1887,1884,1895
1618034,1887,1877,1882
1618044,1850,1854,1850
1618054,1872,1873,1873
1618064,1859,1861,1856
1618074,1871,1862,1855
1618084,1865,1862,1849
1618094,1866,1842,1830
1618104,1863,1859,1843
1618114,1851,1847,1837
1618124,1867,1856,1840
1618134,1866,1853,1842
1618144,1871,1842,1834
1618154,1859,1855,1843
1618164,1859,1855,1841
1618174,1871,1858,1854
1618184,1872,1858,1856
1618194,1850,1857,1856
1618204,1856,1858,1857
1618214,1872,1858,1857
1618224,1873,1867,1859
1618234,1874,1869,1867
1618244,1846,1855,1854
1618254,1854,1858,1856
1618264,1884,1867,1868
1618274,1875,1858,1863
1618284,1872,1862,1859
1618294,1840,1850,1846
1618304,1856,1852,1847
1618314,1877,1871,1859
1618324,1872,1859,1854
1618334,1869,1858,1851
1618344,1832,1840,1831
1618354,1864,1850,1839
1618364,1871,1861,1846
1618374,1871,1861,1850
1618384,1870,1856,1845
1618394,1822,1840,1825
1618404,1872,1849,1843
1618414,1863,1861,1854
1618424,1871,1857,1852
1618434,1871,1859,1847
1618444,1825,1836,1831
1618454,1878,1861,1846
1618464,1857,1860,1853
1618474,1872,1862,1855
1618484,1872,1859,1852
1618494,1840,1842,1834
1618504,1872,1859,1856
1618514,1855,1856,1847
1618524,1874,1856,1855
1618534,1871,1858,1851
1618544,1866,1840,1831
1618554,1870,1860,1856
1618564,1860,1856,1841
1618574,1888,1857,1853
1618584,1872,1862,1856
1618594,1872,1851,1843
1618604,1867,1861,1869
1618614,1869,1861,1863
1618624,1884,1872,1884
1618634,1890,1875,1897
1618644,1901,1874,1889
1618654,1897,1886,1926
1618664,1900,1883,1921
1618674,1918,1898,1941
1618684,1917,1900,1947
1618694,1918,1905,1958
1618704,1907,1904,1956
1618714,1921,1901,1947
1618724,1920,1909,1953
1618734,1915,1909,1948
1618744,1893,1904,1936
1618754,1899,1904,1931
1618764,1921,1901,1929
1618774,1904,1899,1920
1618784,1901,1893,1906
1618794,1895,1877,1883
1618804,1871,1872,1879
1618814,1894,1882,1885
1618824,1882,1873,1872
1618834,1873,1867,1872
1618844,1875,1855,1841
1618854,1856,1851,1840
1618864,1873,1862,1855
1618874,1870,1856,1844
1618884,1867,1854,1840
1618894,1867,1841,1822
1618904,1859,1850,1835
1618914,1869,1859,1841
1618924,1867,1859,1842
1618934,1869,1859,1851
1618944,1872,1842,1829
1618954,1874,1858,1851
1618964,1871,1855,1856
1618974,1879,1859,1859
1618984,1877,1862,1865
1618994,1878,1855,1840
1619004,1879,1867,1868
1619014,1867,1862,1865
1619024,1873,1866,1867
1619034,1879,1863,1862
1619044,1875,1858,1840
1619054,1874,1870,1867
1619064,1861,1861,1853
1619074,1874,1863,1859
1619084,1872,1862,1854
1619094,1872,1859,1834
1619104,1870,1863,1851
1619114,1855,1850,1840
1619124,1872,1859,1850
1619134,1872,1859,1846
1619144,1873,1854,1834
1619154,1863,1858,1847
1619164,1858,1849,1839
1619174,1872,1857,1851
1619184,1868,1855,1847
1619194,1872,1858,1854
1619204,1856,1853,1840
1619214,1863,1850,1840
1619224,1869,1861,1849
1619234,1872,1857,1850
1619244,1874,1858,1854
1619254,1855,1855,1850
1619264,1886,1859,1853
1619274,1872,1860,1852
1619284,1872,1863,1850
1619294,1874,1859,1846
1619304,1854,1853,1843
1619314,1872,1858,1853
1619324,1873,1865,1854
1619334,1872,1862,1851
1619344,1872,1855,1840
1619354,1853,1850,1840
1619364,1875,1862,1856
1619374,1873,1861,1852
1619384,1874,1863,1851
1619394,1877,1861,1840
1619404,1861,1853,1849
1619414,1883,1870,1872
1619424,1887,1872,1873
1619434,1894,1872,1892
1619444,1904,1883,1886
1619454,1901,1873,1904
1619464,1919,1898,1937
1619474,1920,1901,1947
1619484,1922,1903,1958
1619494,1930,1909,1951
1619504,1935,1908,1967
1619514,1922,1917,1968
1619524,1929,1915,1968
1619534,1927,1917,1962
1619544,1930,1914,1955
1619554,1934,1911,1947
1619564,1905,1899,1936
1619574,1916,1898,1929
1619584,1905,1895,1917
1619594,1904,1890,1906
1619604,1894,1894,1904
1619614,1874,1876,1885
1619624,1890,1874,1872
1619634,1886,1878,1867
1619644,1887,1872,1859
1619654,1871,1870,1856
1619664,1859,1858,1843
1619674,1872,1865,1847
1619684,1872,1862,1840
1619694,1872,1858,1835
1619704,1850,1850,1829
1619714,1861,1842,1826
1619724,1869,1856,1836
1619734,1872,1854,1837
1619744,1872,1856,1842
1619754,1851,1847,1839
1619764,1884,1857,1843
1619774,1876,1858,1846
1619784,1872,1860,1853
1619794,1874,1865,1853
1619804,1847,1851,1844
1619814,1878,1869,1858
1619824,1877,1861,1856
1619834,1873,1866,1859
1619844,1883,1863,1857
1619854,1850,1851,1840
1619864,1877,1869,1861
1619874,1882,1861,1855
1619884,1872,1860,1854
1619894,1873,1867,1859
1619904,1843,1851,1839
1619914,1872,1858,1856
1619924,1878,1859,1849
1619934,1872,1858,1851
1619944,1869,1854,1847
1619954,1841,1851,1839
1619964,1866,1858,1845
1619974,1866,1856,1841
1619984,1869,1861,1841
1619994,1872,1857,1841
1620004,1846,1847,1832
1620014,1871,1861,1846
1620024,1872,1859,1845
1620034,1868,1853,1842
1620044,1891,1841,1824
1620054,1840,1840,1833
1620064,1872,1856,1852
1620074,1890,1862,1855
1620084,1872,1857,1853
1620094,1874,1859,1861
1620104,1855,1844,1840
1620114,1884,1862,1863
1620124,1874,1869,1861
1620134,1873,1862,1857
1620144,1878,1867,1847
1620154,1853,1850,1840
1620164,1878,1869,1861
1620174,1883,1872,1861
1620184,1875,1860,1857
1620194,1881,1861,1870
1620204,1856,1846,1845
1620214,1883,1870,1867
1620224,1887,1873,1871
1620234,1879,1871,1866
1620244,1881,1870,1877
1620254,1877,1862,1872
1620264,1889,1878,1891
1620274,1876,1879,1904
1620284,1901,1887,1911
1620294,1910,1889,1925
1620304,1910,1893,1942
1620314,1910,1904,1946
1620324,1923,1904,1954
1620334,1927,1910,1962
1620344,1933,1917,1966
1620354,1919,1918,1966
1620364,1906,1908,1952
1620374,1936,1921,1952
1620384,1925,1919,1939
1620394,1926,1915,1933
1620404,1904,1901,1925
1620414,1898,1899,1901
1620424,1917,1904,1903
1620434,1902,1893,1889
1620444,1899,1886,1876
1620454,1873,1879,1866
1620464,1874,1863,1845
1620474,1872,1870,1859
1620484,1879,1882,1853
1620494,1876,1870,1846
1620504,1847,1838,1835
1620514,1872,1846,1824
1620524,1859,1857,1837
1620534,1863,1856,1833
1620544,1869,1855,1841
1620554,1842,1841,1833
1620564,1874,1854,1835
1620574,1866,1853,1846
1620584,1872,1856,1845
1620594,1873,1856,1857
1620604,1851,1847,1845
1620614,1882,1862,1856
1620624,1886,1861,1863
1620634,1879,1867,1862
1620644,1878,1866,1866
1620654,1843,1853,1854
1620664,1883,1872,1869
1620674,1883,1869,1866
1620684,1880,1866,1856
1620694,1878,1867,1861
1620704,1851,1847,1839
1620714,1877,1862,1857
1620724,1871,1872,1858
1620734,1874,1862,1851
1620744,1873,1861,1852
1620754,1852,1843,1840
1620764,1872,1860,1848
1620774,1871,1858,1845
1620784,1872,1859,1846
1620794,1871,1857,1849
1620804,1859,1848,1838
1620814,1865,1855,1847
1620824,1869,1863,1840
1620834,1866,1856,1842
1620844,1872,1857,1847
1620854,1867,1846,1836
1620864,1856,1854,1847
1620874,1871,1856,1840
1620884,1871,1855,1845
1620894,1870,1857,1850
1620904,1869,1856,1847
1620914,1856,1855,1841
1620924,1877,1857,1845
1620934,1871,1855,1855
1620944,1872,1857,1858
1620954,1861,1855,1854
1620964,1847,1847,1851
1620974,1875,1861,1871
1620984,1870,1858,1856
1620994,1872,1861,1858
1621004,1851,1851,1847
1621014,1871,1847,1843
1621024,1874,1863,1855
1621034,1869,1857,1853
1621044,1872,1861,1854
1621054,1843,1853,1840
1621064,1878,1858,1845
1621074,1885,1853,1845
1621084,1878,1863,1850
1621094,1872,1863,1856
1621104,1848,1851,1849
1621114,1885,1869,1872
1621124,1911,1872,1894
1621134,1904,1879,1899
1621144,1905,1882,1917
1621154,1904,1877,1907
1621164,1925,1902,1942
1621174,1937,1903,1959
1621184,1936,1911,1968
1621194,1936,1920,1971
1621204,1936,1917,1968
1621214,1925,1918,1961
1621224,1951,1922,1967
1621234,1934,1920,1958
1621244,1936,1917,1951
1621254,1907,1913,1937
1621264,1898,1898,1919
1621274,1931,1905,1921
1621284,1909,1903,1910
1621294,1905,1893,1904
1621304,1867,1881,1884
1621314,1897,1883,1888
1621324,1904,1885,1878
1621334,1884,1872,1867
1621344,1881,1871,1858
1621354,1841,1853,1839
1621364,1872,1867,1852
1621374,1895,1861,1840
1621384,1872,1855,1846
1621394,1871,1857,1841
1621404,1851,1843,1831
1621414,1861,1855,1845
1621424,1840,1861,1849
1621434,1872,1856,1847
1621444,1872,1855,1847
1621454,1860,1854,1851
1621464,1851,1856,1851
1621474,1899,1862,1857
1621484,1881,1865,1862
1621494,1878,1863,1863
1621504,1857,1857,1857
1621514,1859,1849,1849
1621524,1872,1869,1868
1621534,1873,1859,1869
1621544,1872,1859,1866
1621554,1840,1856,1849
1621564,1875,1857,1857
1621574,1875,1857,1859
1621584,1873,1859,1856
1621594,1872,1860,1854
1621604,1834,1840,1836
1621614,1867,1859,1851
1621624,1883,1867,1851
1621634,1871,1861,1844
1621644,1868,1857,1844
1621654,1840,1840,1826
1621664,1859,1854,1845
1621674,1877,1859,1847
1621684,1867,1857,1845
1621694,1867,1856,1842
1621704,1856,1846,1840
1621714,1860,1856,1842
1621724,1869,1842,1850
1621734,1867,1861,1842
1621744,1867,1857,1846
1621754,1862,1855,1841
1621764,1847,1854,1837
1621774,1872,1850,1851
1621784,1872,1853,1841
1621794,1872,1857,1840
1621804,1846,1847,1840
1621814,1855,1842,1838
1621824,1876,1866,1858
1621834,1874,1859,1840
1621844,1872,1859,1848
1621854,1840,1849,1839
1621864,1876,1851,1840
1621874,1872,1867,1863
1621884,1872,1857,1850
1621894,1872,1859,1851
1621904,1834,1846,1840
1621914,1874,1847,1839
1621924,1872,1864,1856
1621934,1870,1858,1849
1621944,1872,1853,1846
1621954,1840,1843,1835
1621964,1872,1851,1840
1621974,1877,1869,1869
1621984,1883,1867,1868
1621994,1886,1869,1876
1622004,1856,1859,1871
1622014,1910,1872,1888
1622024,1904,1886,1914
1622034,1916,1892,1926
1622044,1921,1897,1938
1622054,1888,1888,1936
1622064,1936,1904,1951
1622074,1936,1911,1968
1622084,1935,1913,1959
1622094,1934,1917,1961
1622104,1893,1901,1943
1622114,1934,1907,1947
1622124,1919,1914,1947
1622134,1915,1905,1933
1622144,1910,1897,1925
1622154,1867,1875,1898
1622164,1911,1882,1899
1622174,1890,1890,1901
1622184,1887,1882,1887
1622194,1882,1883,1877
1622204,1838,1858,1852
1622214,1875,1865,1855
1622224,1872,1866,1854
1622234,1872,1861,1843
1622244,1863,1856,1834
1622254,1822,1840,1818
1622264,1863,1857,1835
1622274,1857,1849,1836
1622284,1865,1856,1833
1622294,1866,1853,1834
1622304,1831,1838,1810
1622314,1872,1859,1846
1622324,1862,1856,1840
1622334,1878,1862,1844
1622344,1872,1859,1846
1622354,1840,1840,1833
1622364,1877,1867,1861
1622374,1868,1863,1859
1622384,1882,1868,1863
1622394,1875,1865,1860
1622404,1843,1845,1839
1622414,1879,1872,1861
1622424,1862,1857,1856
1622434,1879,1869,1858
1622444,1872,1863,1857
1622454,1840,1840,1830
1622464,1866,1868,1853
1622474,1863,1855,1854
1622484,1878,1856,1848
1622494,1870,1856,1841
1622504,1834,1838,1824
1622514,1865,1863,1851
1622524,1856,1850,1842
1622534,1872,1858,1840
1622544,1870,1853,1841
1622554,1835,1840,1814
1622564,1867,1863,1843
1622574,1854,1852,1839
1622584,1872,1856,1840
1622594,1870,1855,1840
1622604,1835,1835,1822
1622614,1867,1859,1849
1622624,1859,1858,1840
1622634,1872,1858,1845
1622644,1870,1858,1846
1622654,1835,1840,1817
1622664,1866,1861,1847
1622674,1856,1858,1846
1622684,1875,1861,1849
1622694,1870,1856,1842
1622704,1845,1838,1824
1622714,1869,1858,1842
1622724,1856,1851,1840
1622734,1875,1861,1850
1622744,1872,1857,1845
1622754,1846,1839,1823
1622764,1870,1856,1846
1622774,1859,1856,1840
1622784,1881,1860,1853
1622794,1875,1861,1855
1622804,1857,1846,1840
1622814,1872,1865,1862
1622824,1872,1861,1867
1622834,1904,1872,1884
1622844,1903,1874,1895
1622854,1882,1869,1888
1622864,1907,1887,1923
1622874,1903,1883,1930
1622884,1936,1904,1942
1622894,1933,1902,1950
1622904,1904,1895,1939
1622914,1922,1905,1958
1622924,1911,1905,1950
1622934,1939,1915,1962
1622944,1925,1911,1949
1622954,1898,1898,1929
1622964,1908,1904,1931
1622974,1893,1898,1919
1622984,1911,1902,1917
1622994,1903,1890,1903
1623004,1871,1874,1875
1623014,1872,1878,1881
1623024,1867,1869,1867
1623034,1882,1872,1871
1623044,1874,1872,1856
1623054,1856,1856,1840
1623064,1853,1859,1841
1623074,1851,1854,1836
1623084,1869,1859,1840
1623094,1863,1856,1840
1623104,1845,1843,1823
1623114,1856,1851,1833
1623124,1853,1843,1827
1623134,1871,1859,1843
1623144,1872,1856,1846
1623154,1854,1849,1840
1623164,1860,1852,1847
1623174,1855,1852,1845
1623184,1883,1865,1861
1623194,1876,1867,1857
1623204,1867,1851,1847
1623214,1866,1863,1862
1623224,1875,1859,1856
1623234,1889,1867,1871
1623244,1877,1866,1862
1623254,1865,1856,1855
1623264,1854,1856,1856
1623274,1872,1860,1851
1623284,1882,1866,1862
1623294,1872,1867,1853
1623304,1853,1856,1847
1623314,1840,1851,1845
1623324,1875,1855,1845
1623334,1877,1865,1853
1623344,1872,1859,1850
1623354,1837,1846,1838
1623364,1839,1845,1830
1623374,1871,1859,1850
1623384,1873,1860,1846
1623394,1872,1858,1842
1623404,1822,1840,1834
1623414,1854,1840,1835
1623424,1870,1867,1849
1623434,1872,1861,1851
1623444,1872,1859,1850
1623454,1825,1840,1833
1623464,1865,1845,1835
1623474,1872,1862,1855
1623484,1878,1863,1854
1623494,1871,1860,1847
1623504,1827,1840,1834
1623514,1872,1849,1839
1623524,1870,1862,1856
1623534,1878,1861,1854
1623544,1871,1861,1853
1623554,1829,1841,1824
1623564,1878,1849,1840
1623574,1868,1861,1847
1623584,1874,1866,1855
1623594,1874,1862,1851
1623604,1841,1840,1835
1623614,1879,1863,1856
1623624,1873,1863,1862
1623634,1899,1868,1872
1623644,1893,1872,1882
1623654,1887,1854,1875
1623664,1899,1885,1917
1623674,1899,1886,1920
1623684,1933,1904,1946
1623694,1929,1903,1951
1623704,1914,1887,1941
1623714,1929,1906,1967
1623724,1920,1905,1959
1623734,1949,1920,1975
1623744,1934,1915,1967
1623754,1887,1901,1947
1623764,1911,1907,1951
1623774,1909,1903,1941
1623784,1921,1911,1938
1623794,1911,1904,1932
1623804,1856,1891,1910
1623814,1871,1887,1904
1623824,1894,1884,1898
1623834,1893,1887,1898
1623844,1881,1881,1881
1623854,1856,1846,1863
1623864,1840,1858,1857
1623874,1877,1871,1865
1623884,1874,1867,1865
1623894,1859,1857,1851
1623904,1841,1847,1835
1623914,1847,1845,1835
1623924,1867,1863,1854
1623934,1872,1858,1853
1623944,1869,1858,1856
1623954,1846,1853,1831
1623964,1874,1847,1841
1623974,1876,1862,1863
1623984,1885,1869,1863
1623994,1878,1869,1868
1624004,1869,1846,1840
1624014,1883,1861,1858
1624024,1879,1869,1866
1624034,1890,1869,1871
1624044,1882,1866,1863
1624054,1870,1851,1840
1624064,1874,1866,1858
1624074,1870,1869,1859
1624084,1885,1868,1862
1624094,1872,1863,1855
1624104,1863,1851,1838
1624114,1863,1862,1854
1624124,1860,1859,1848
1624134,1877,1864,1856
1624144,1872,1860,1847
1624154,1867,1846,1828
1624164,1861,1857,1849
1624174,1858,1855,1842
1624184,1881,1857,1847
1624194,1861,1851,1841
1624204,1859,1849,1824
1624214,1858,1854,1840
1624224,1853,1844,1831
1624234,1879,1862,1844
1624244,1867,1856,1842
1624254,1860,1853,1838
1624264,1856,1845,1834
1624274,1834,1853,1827
1624284,1882,1861,1846
1624294,1870,1858,1841
1624304,1861,1854,1837
1624314,1850,1851,1840
1624324,1868,1854,1842
1624334,1882,1859,1855
1624344,1870,1855,1854
1624354,1866,1854,1829
1624364,1840,1845,1838
1624374,1874,1860,1851
1624384,1878,1863,1855
1624394,1871,1861,1847
1624404,1863,1859,1840
1624414,1852,1843,1835
1624424,1873,1866,1854
1624434,1883,1865,1853
1624444,1872,1861,1855
1624454,1862,1859,1851
1624464,1884,1867,1871
1624474,1885,1872,1883
1624484,1914,1879,1904
1624494,1909,1886,1905
1624504,1910,1888,1919
1624514,1909,1890,1936
1624524,1911,1898,1938
1624534,1934,1916,1965
1624544,1936,1907,1968
1624554,1922,1910,1963
1624564,1916,1914,1967
1624574,1927,1910,1959
1624584,1950,1917,1967
1624594,1927,1913,1951
1624604,1915,1902,1936
1624614,1877,1891,1925
1624624,1913,1904,1921
1624634,1895,1904,1914
1624644,1895,1891,1899
1624654,1886,1885,1891
1624664,1859,1865,1862
1624674,1883,1879,1872
1624684,1904,1872,1870
1624694,1872,1867,1854
1624704,1859,1859,1841
1624714,1869,1850,1829
1624724,1858,1859,1840
1624734,1906,1856,1839
1624744,1866,1850,1835
1624754,1859,1850,1829
1624764,1859,1851,1838
1624774,1853,1845,1834
1624784,1887,1861,1843
1624794,1868,1853,1845
1624804,1865,1855,1840
1624814,1857,1851,1845
1624824,1861,1854,1842
1624834,1882,1872,1859
1624844,1877,1859,1857
1624854,1871,1856,1854
1624864,1866,1858,1851
1624874,1866,1856,1853
1624884,1875,1863,1861
1624894,1873,1863,1859
1624904,1867,1860,1850
1624914,1852,1857,1851
1624924,1870,1855,1847
1624934,1875,1871,1854
1624944,1871,1861,1851
1624954,1862,1854,1847
1624964,1831,1842,1835
1624974,1873,1857,1845
1624984,1872,1863,1854
1624994,1872,1859,1844
1625004,1860,1851,1840
1625014,1831,1838,1825
1625024,1872,1857,1846
1625034,1861,1856,1839
1625044,1871,1855,1840
1625054,1860,1853,1840
1625064,1866,1840,1831
1625074,1867,1860,1845
1625084,1876,1850,1860
1625094,1869,1858,1842
1625104,1862,1856,1843
1625114,1858,1856,1847
1625124,1855,1849,1841
1625134,1879,1872,1861
1625144,1867,1855,1847
1625154,1858,1853,1844
1625164,1856,1850,1843
1625174,1856,1855,1840
1625184,1870,1862,1841
1625194,1870,1856,1849
1625204,1863,1852,1846
1625214,1845,1853,1842
1625224,1873,1854,1844
1625234,1874,1858,1858
1625244,1872,1865,1847
1625254,1870,1856,1842
1625264,1827,1846,1837
1625274,1877,1861,1856
1625284,1867,1860,1858
1625294,1870,1859,1851
1625304,1872,1857,1856
1625314,1872,1840,1840
1625324,1882,1867,1872
1625334,1899,1871,1874
1625344,1894,1869,1887
1625354,1899,1875,1895
1625364,1904,1882,1917
1625374,1903,1889,1924
1625384,1937,1898,1952
1625394,1927,1903,1958
1625404,1926,1902,1957
1625414,1916,1902,1957
1625424,1917,1904,1954
1625434,1936,1906,1966
1625444,1927,1908,1957
1625454,1915,1904,1942
1625464,1890,1898,1936
1625474,1908,1897,1931
1625484,1919,1899,1926
1625494,1903,1895,1914
1625504,1891,1886,1901
1625514,1846,1871,1873
1625524,1895,1879,1885
1625534,1873,1873,1878
1625544,1872,1872,1863
1625554,1863,1862,1847
1625564,1865,1842,1829
1625574,1858,1858,1842
1625584,1901,1866,1841
1625594,1867,1851,1840
1625604,1856,1850,1837
1625614,1847,1847,1835
1625624,1850,1847,1833
1625634,1863,1856,1851
1625644,1865,1857,1844
1625654,1865,1854,1841
1625664,1843,1850,1844
1625674,1872,1855,1849
1625684,1887,1872,1860
1625694,1874,1858,1867
1625704,1869,1860,1861
1625714,1833,1846,1846
1625724,1887,1866,1863
1625734,1881,1870,1872
1625744,1872,1863,1865
1625754,1873,1866,1856
1625764,1865,1844,1842
1625774,1871,1867,1862
1625784,1870,1866,1856
1625794,1873,1858,1854
1625804,1870,1855,1850
1625814,1867,1843,1841
1625824,1867,1858,1847
1625834,1882,1861,1862
1625844,1870,1857,1845
1625854,1867,1854,1841
1625864,1853,1858,1846
1625874,1859,1858,1844
1625884,1878,1859,1848
1625894,1871,1853,1845
1625904,1862,1856,1841
1625914,1854,1856,1851
1625924,1863,1855,1847
1625934,1881,1861,1872
1625944,1869,1853,1845
1625954,1860,1856,1847
1625964,1851,1847,1840
1625974,1855,1847,1841
1625984,1879,1863,1857
1625994,1865,1859,1855
1626004,1861,1855,1852
1626014,1846,1851,1840
1626024,1853,1851,1839
1626034,1872,1859,1845
1626044,1871,1856,1853
1626054,1867,1854,1850
1626064,1826,1845,1841
1626074,1873,1855,1844
1626084,1872,1856,1867
1626094,1870,1855,1850
1626104,1866,1858,1848
1626114,1835,1834,1824
1626124,1872,1866,1858
1626134,1857,1853,1853
1626144,1867,1853,1846
1626154,1863,1853,1841
1626164,1866,1857,1851
1626174,1867,1861,1849
1626184,1885,1859,1847
1626194,1874,1863,1857
1626204,1873,1863,1858
1626214,1865,1858,1856
1626224,1869,1861,1868
1626234,1899,1883,1895
1626244,1898,1875,1902
1626254,1904,1875,1914
1626264,1884,1873,1920
1626274,1911,1888,1931
1626284,1932,1895,1952
1626294,1930,1903,1964
1626304,1931,1901,1963
1626314,1884,1884,1942
1626324,1935,1903,1963
1626334,1915,1905,1962
1626344,1920,1906,1954
1626354,1907,1903,1937
1626364,1877,1874,1908
1626374,1905,1902,1930
1626384,1886,1888,1910
1626394,1886,1890,1904
1626404,1882,1884,1890
1626414,1881,1866,1867
1626424,1883,1875,1879
1626434,1859,1871,1866
1626444,1872,1872,1855
1626454,1867,1862,1845
1626464,1866,1845,1830
1626474,1861,1860,1842
1626484,1858,1850,1837
1626494,1858,1857,1840
1626504,1859,1857,1841
1626514,1840,1854,1840
1626524,1856,1853,1840
1626534,1873,1861,1857
1626544,1869,1861,1846
1626554,1870,1855,1851
1626564,1843,1850,1842
1626574,1860,1857,1846
1626584,1872,1868,1863
1626594,1878,1863,1863
1626604,1880,1863,1860
1626614,1841,1854,1853
1626624,1874,1854,1855
1626634,1882,1872,1866
1626644,1876,1866,1865
1626654,1872,1863,1857
1626664,1831,1843,1840
1626674,1879,1859,1861
1626684,1867,1861,1855
1626694,1872,1865,1857
1626704,1869,1859,1854
1626714,1840,1840,1825
1626724,1869,1861,1858
1626734,1856,1858,1847
1626744,1871,1858,1855
1626754,1871,1856,1850
1626764,1871,1837,1825
1626774,1861,1855,1851
1626784,1854,1853,1843
1626794,1869,1856,1853
1626804,1866,1853,1846
1626814,1862,1849,1849
1626824,1861,1858,1847
1626834,1861,1853,1840
1626844,1869,1855,1847
1626854,1870,1858,1850
1626864,1843,1856,1853
1626874,1859,1856,1847
1626884,1869,1853,1843
1626894,1871,1856,1852
1626904,1863,1857,1851
1626914,1843,1856,1845
1626924,1854,1850,1851
1626934,1881,1857,1851
1626944,1872,1858,1856
1626954,1868,1856,1850
1626964,1842,1853,1842
1626974,1855,1855,1846
1626984,1875,1869,1859
1626994,1869,1859,1850
1627004,1871,1857,1854
1627014,1838,1847,1842
1627024,1853,1853,1845
1627034,1877,1865,1856
1627044,1872,1860,1851
1627054,1868,1859,1852
1627064,1826,1843,1838
1627074,1872,1855,1851
1627084,1870,1862,1856
1627094,1872,1865,1851
1627104,1872,1862,1855
1627114,1840,1843,1840
1627124,1882,1870,1872
1627134,1874,1868,1877
1627144,1890,1872,1895
1627154,1901,1875,1904
1627164,1892,1863,1901
1627174,1911,1890,1936
1627184,1907,1889,1937
1627194,1920,1890,1953
1627204,1923,1897,1957
1627214,1926,1883,1943
1627224,1921,1901,1966
1627234,1911,1902,1956
1627244,1917,1904,1954
1627254,1915,1904,1949
1627264,1917,1886,1923
1627274,1904,1898,1936
1627284,1889,1885,1918
1627294,1904,1893,1909
1627304,1895,1886,1904
1627314,1867,1883,1889
1627324,1869,1872,1881
1627334,1882,1872,1872
1627344,1872,1878,1867
1627354,1870,1866,1857
1627364,1843,1862,1843
1627374,1844,1855,1843
1627384,1867,1859,1840
1627394,1859,1862,1840
1627404,1869,1855,1840
1627414,1852,1852,1834
1627424,1840,1851,1839
1627434,1871,1857,1840
1627444,1868,1858,1846
1627454,1872,1859,1849
1627464,1872,1854,1840
1627474,1855,1856,1849
1627484,1882,1858,1866
1627494,1873,1861,1860
1627504,1874,1865,1862
1627514,1880,1855,1850
1627524,1856,1853,1855
1627534,1882,1867,1870
1627544,1877,1865,1867
1627554,1875,1863,1863
1627564,1879,1855,1843
1627574,1862,1854,1851
1627584,1872,1866,1863
1627594,1872,1867,1855
1627604,1872,1859,1860
1627614,1873,1852,1840
1627624,1871,1855,1843
1627634,1869,1867,1854
1627644,1867,1857,1854
1627654,1866,1856,1841
1627664,1869,1857,1832
1627674,1872,1858,1844
1627684,1859,1856,1844
1627694,1868,1858,1846
1627704,1869,1856,1842
1627714,1872,1858,1831
1627724,1863,1866,1851
1627734,1856,1847,1839
1627744,1871,1855,1849
1627754,1870,1861,1849
1627764,1883,1859,1855
1627774,1872,1859,1846
1627784,1857,1852,1840
1627794,1872,1862,1850
1627804,1870,1857,1849
1627814,1883,1858,1854
1627824,1858,1855,1841
1627834,1872,1850,1841
1627844,1872,1866,1853
1627854,1872,1858,1851
1627864,1873,1865,1850
1627874,1854,1856,1840
1627884,1872,1856,1845
1627894,1869,1858,1847
1627904,1874,1858,1846
1627914,1872,1862,1850
1627924,1849,1859,1842
1627934,1883,1856,1845
1627944,1875,1856,1849
1627954,1873,1856,1850
1627964,1873,1863,1851
1627974,1846,1850,1840
1627984,1877,1866,1855
1627994,1882,1859,1856
1628004,1882,1863,1862
1628014,1890,1869,1872
1628024,1863,1856,1869
1628034,1904,1881,1899
1628044,1905,1878,1911
1628054,1911,1886,1921
1628064,1920,1894,1936
1628074,1919,1885,1935
1628084,1924,1898,1955
1628094,1921,1903,1959
1628104,1923,1901,1963
1628114,1926,1904,1964
1628124,1930,1904,1959
1628134,1905,1895,1950
1628144,1919,1904,1947
1628154,1914,1903,1936
1628164,1913,1897,1927
1628174,1899,1894,1923
1628184,1874,1889,1904
1628194,1913,1891,1902
1628204,1891,1885,1890
1628214,1889,1882,1881
1628224,1859,1873,1872
1628234,1871,1869,1856
1628244,1871,1870,1860
1628254,1872,1867,1852
1628264,1872,1871,1854
1628274,1840,1855,1838
1628284,1879,1856,1840
1628294,1885,1859,1840
1628304,1869,1863,1840
1628314,1867,1857,1841
1628324,1844,1847,1827
1628334,1869,1861,1843
1628344,1872,1867,1849
1628354,1872,1861,1847
1628364,1882,1856,1854
1628374,1862,1850,1845
1628384,1875,1869,1863
1628394,1863,1865,1859
1628404,1874,1863,1862
1628414,1881,1867,1867
1628424,1872,1861,1856
1628434,1872,1867,1863
1628444,1858,1862,1861
1628454,1875,1871,1861
1628464,1873,1863,1862
1628474,1872,1861,1856
1628484,1861,1856,1855
1628494,1863,1846,1851
1628504,1872,1863,1854
1628514,1872,1860,1851
1628524,1867,1859,1851
1628534,1846,1854,1843
1628544,1882,1867,1846
1628554,1872,1859,1846
1628564,1875,1858,1844
1628574,1853,1856,1842
1628584,1855,1847,1840
1628594,1869,1865,1856
1628604,1872,1861,1843
1628614,1872,1861,1849
1628624,1850,1854,1840
1628634,1870,1855,1839
1628644,1879,1863,1853
1628654,1874,1858,1849
1628664,1873,1853,1849
1628674,1846,1851,1837
1628684,1877,1855,1839
1628694,1873,1866,1855
1628704,1872,1856,1847
1628714,1874,1868,1852
1628724,1845,1855,1845
1628734,1884,1863,1853
1628744,1879,1859,1841
1628754,1874,1858,1853
1628764,1872,1863,1857
1628774,1843,1850,1841
1628784,1874,1870,1855
1628794,1873,1856,1852
1628804,1872,1860,1853
1628814,1872,1858,1854
1628824,1838,1841,1835
1628834,1871,1867,1854
1628844,1899,1863,1858
1628854,1874,1858,1854
1628864,1877,1862,1857
1628874,1858,1850,1840
1628884,1876,1871,1870
1628894,1904,1872,1875
1628904,1897,1872,1887
1628914,1903,1873,1899
1628924,1878,1859,1898
1628934,1910,1890,1931
1628944,1938,1886,1940
1628954,1923,1898,1952
1628964,1923,1902,1962
1628974,1907,1890,1953
1628984,1926,1905,1968
1628994,1925,1907,1963
1629004,1927,1905,1966
1629014,1923,1904,1953
1629024,1915,1895,1936
1629034,1904,1901,1937
1629044,1913,1901,1926
1629054,1903,1895,1919
1629064,1900,1894,1913
1629074,1890,1888,1894
1629084,1870,1879,1888
1629094,1909,1884,1889
1629104,1886,1874,1874
1629114,1875,1872,1866
1629124,1857,1866,1859
1629134,1856,1859,1841
1629144,1878,1874,1845
1629154,1871,1867,1847
1629164,1872,1863,1840
1629174,1841,1855,1831
1629184,1872,1853,1831
1629194,1874,1871,1841
1629204,1870,1857,1841
1629214,1872,1863,1847
1629224,1838,1844,1837
1629234,1881,1867,1859
1629244,1887,1858,1858
1629254,1874,1865,1855
1629264,1877,1866,1859
1629274,1840,1846,1844
1629284,1873,1865,1865
1629294,1894,1873,1867
1629304,1883,1869,1865
1629314,1879,1863,1861
1629324,1858,1847,1843
1629334,1873,1859,1856
1629344,1878,1856,1860
1629354,1877,1863,1857
1629364,1873,1860,1851
1629374,1870,1858,1845
1629384,1849,1851,1847
1629394,1880,1856,1858
1629404,1872,1859,1853
1629414,1871,1862,1851
1629424,1852,1858,1847
1629434,1856,1846,1835
1629444,1877,1871,1859
1629454,1873,1860,1847
1629464,1872,1861,1850
1629474,1837,1841,1838
1629484,1881,1857,1842
1629494,1871,1863,1847
1629504,1872,1858,1850
1629514,1872,1861,1847
1629524,1831,1840,1831
1629534,1865,1862,1855
1629544,1870,1869,1860
1629554,1882,1867,1856
1629564,1873,1863,1853
1629574,1845,1840,1831
1629584,1872,1858,1855
1629594,1862,1859,1861
1629604,1876,1866,1855
1629614,1872,1859,1856
1629624,1863,1846,1845
1629634,1863,1855,1849
1629644,1866,1861,1859
1629654,1877,1860,1856
1629664,1877,1862,1856
1629674,1862,1855,1851
1629684,1851,1858,1847
1629694,1877,1858,1853
1629704,1876,1863,1856
1629714,1875,1865,1858
1629724,1841,1854,1846
1629734,1859,1846,1841
1629744,1874,1869,1859
1629754,1879,1867,1859
1629764,1879,1866,1863
1629774,1846,1856,1856
1629784,1895,1866,1874
1629794,1895,1872,1894
1629804,1903,1882,1907
1629814,1914,1884,1920
1629824,1872,1870,1906
1629834,1920,1899,1950
1629844,1914,1895,1953
1629854,1933,1904,1962
1629864,1930,1903,1962
1629874,1904,1887,1947
1629884,1924,1904,1965
1629894,1904,1904,1954
1629904,1923,1906,1952
1629914,1914,1899,1939
1629924,1893,1889,1920
1629934,1889,1893,1921
1629944,1895,1890,1910
1629954,1900,1889,1904
1629964,1894,1885,1894
1629974,1865,1875,1879
1629984,1861,1866,1869
1629994,1882,1874,1872
1630004,1881,1877,1870
1630014,1872,1871,1857
1630024,1838,1855,1840
1630034,1857,1855,1839
1630044,1870,1861,1850
1630054,1872,1862,1845
1630064,1869,1857,1843
1630074,1827,1840,1830
1630084,1872,1860,1846
1630094,1861,1856,1842
1630104,1874,1858,1856
1630114,1875,1863,1853
1630124,1845,1840,1829
1630134,1867,1863,1864
1630144,1863,1860,1854
1630154,1885,1865,1866
1630164,1881,1865,1866
1630174,1853,1849,1841
1630184,1872,1863,1855
1630194,1867,1861,1855
1630204,1884,1871,1867
1630214,1874,1861,1861
1630224,1863,1853,1840
1630234,1870,1866,1857
1630244,1870,1857,1841
1630254,1875,1863,1862
1630264,1873,1859,1854
1630274,1860,1857,1843
1630284,1847,1856,1843
1630294,1877,1859,1855
1630304,1877,1863,1853
1630314,1871,1862,1846
1630324,1840,1853,1842
1630334,1841,1842,1834
1630344,1872,1866,1856
1630354,1881,1857,1854
1630364,1868,1860,1854
1630374,1833,1843,1840
1630384,1871,1847,1840
1630394,1871,1862,1858
1630404,1877,1860,1856
1630414,1872,1862,1857
1630424,1831,1841,1837
1630434,1875,1859,1850
1630444,1866,1860,1852
1630454,1881,1863,1856
1630464,1872,1858,1855
1630474,1840,1840,1831
1630484,1863,1863,1856
1630494,1856,1855,1846
1630504,1881,1868,1855
1630514,1874,1859,1853
1630524,1846,1845,1840
1630534,1863,1859,1845
1630544,1854,1855,1840
1630554,1886,1867,1855
1630564,1872,1858,1852
1630574,1858,1845,1840
1630584,1861,1856,1845
1630594,1863,1856,1839
1630604,1881,1863,1854
1630614,1876,1863,1854
1630624,1855,1856,1844
1630634,1845,1851,1849
1630644,1883,1858,1859
1630654,1887,1872,1863
1630664,1887,1871,1872
1630674,1851,1865,1875
1630684,1874,1866,1885
1630694,1904,1882,1910
1630704,1920,1886,1926
1630714,1915,1893,1936
1630724,1872,1872,1930
1630734,1931,1883,1951
1630744,1922,1900,1966
1630754,1931,1904,1968
1630764,1930,1903,1967
1630774,1891,1886,1940
1630784,1915,1905,1964
1630794,1904,1904,1949
1630804,1921,1904,1943
1630814,1907,1895,1929
1630824,1874,1872,1899
1630834,1880,1895,1915
1630844,1878,1885,1898
1630854,1902,1889,1897
1630864,1886,1878,1874
1630874,1851,1854,1851
1630884,1868,1872,1863
1630894,1863,1866,1854
1630904,1879,1872,1853
1630914,1869,1869,1841
1630924,1861,1847,1817
1630934,1859,1854,1829
1630944,1854,1850,1824
1630954,1875,1862,1840
1630964,1872,1856,1839
1630974,1840,1853,1826
1630984,1863,1857,1835
1630994,1857,1857,1823
1631004,1879,1862,1854
1631014,1876,1856,1850
1631024,1829,1854,1840
1631034,1857,1859,1855
1631044,1872,1857,1853
1631054,1888,1871,1866
1631064,1878,1865,1866
1631074,1823,1847,1853
1631084,1858,1861,1853
1631094,1879,1855,1853
1631104,1887,1872,1867
1631114,1874,1863,1856
1631124,1854,1839,1851
1631134,1843,1855,1840
1631144,1881,1863,1856
1631154,1885,1869,1857
1631164,1873,1860,1855
1631174,1856,1843,1838
1631184,1851,1842,1831
1631194,1872,1866,1857
1631204,1879,1867,1850
1631214,1868,1863,1849
1631224,1852,1854,1827
1631234,1874,1850,1838
1631244,1872,1857,1853
1631254,1880,1867,1851
1631264,1869,1860,1852
1631274,1862,1845,1834
1631284,1860,1862,1849
1631294,1870,1858,1853
1631304,1882,1865,1854
1631314,1872,1863,1856
1631324,1866,1845,1835
1631334,1867,1856,1854
1631344,1859,1861,1855
1631354,1883,1861,1853
1631364,1872,1857,1853
1631374,1873,1853,1840
1631384,1866,1860,1851
1631394,1857,1856,1849
1631404,1882,1871,1855
1631414,1874,1861,1851
1631424,1867,1856,1847
1631434,1861,1853,1845
1631444,1859,1851,1838
1631454,1882,1867,1856
1631464,1874,1864,1854
1631474,1862,1857,1843
1631484,1859,1857,1843
1631494,1866,1856,1846
1631504,1890,1870,1863
1631514,1882,1868,1871
1631524,1879,1862,1862
1631534,1872,1871,1883
1631544,1898,1872,1892
1631554,1920,1879,1917
1631564,1911,1886,1925
1631574,1907,1882,1914
1631584,1893,1885,1936
1631594,1920,1891,1943
1631604,1935,1903,1961
1631614,1922,1901,1954
1631624,1911,1897,1935
1631634,1891,1889,1939
1631644,1913,1891,1936
1631654,1920,1904,1937
1631664,1904,1893,1927
1631674,1894,1886,1895
1631684,1867,1875,1894
1631694,1904,1883,1900
1631704,1889,1886,1897
1631714,1887,1875,1879
1631724,1872,1873,1871
1631734,1865,1861,1853
1631744,1872,1873,1860
1631754,1894,1872,1856
1631764,1872,1861,1846
1631774,1865,1856,1838
1631784,1862,1862,1841
1631794,1856,1863,1839
1631804,1881,1868,1845
1631814,1872,1861,1842
1631824,1870,1857,1840
1631834,1861,1853,1841
1631844,1856,1850,1840
1631854,1895,1867,1856
1631864,1873,1866,1857
1631874,1871,1857,1851
1631884,1854,1858,1854
1631894,1886,1862,1854
1631904,1872,1872,1869
1631914,1879,1867,1861
1631924,1870,1863,1857
1631934,1857,1847,1842
1631944,1883,1871,1863
1631954,1894,1867,1866
1631964,1879,1866,1857
1631974,1871,1859,1850
1631984,1872,1865,1859
1631994,1869,1859,1853
1632004,1904,1872,1861
1632014,1871,1866,1856
1632024,1866,1858,1849
1632034,1860,1857,1854
1632044,1854,1856,1842
1632054,1869,1858,1856
1632064,1867,1861,1853
1632074,1858,1855,1845
1632084,1844,1850,1843
1632094,1869,1856,1843
1632104,1886,1872,1858
1632114,1873,1864,1851
1632124,1867,1857,1844
1632134,1828,1846,1839
1632144,1878,1860,1851
1632154,1872,1860,1858
1632164,1872,1863,1853
1632174,1863,1855,1847
1632184,1858,1842,1838
1632194,1873,1866,1857
1632204,1870,1861,1860
1632214,1872,1859,1850
1632224,1869,1857,1847
1632234,1874,1858,1857
1632244,1863,1859,1855
1632254,1898,1878,1871
1632264,1872,1859,1856
1632274,1867,1864,1853
1632284,1862,1853,1848
1632294,1857,1856,1844
1632304,1877,1866,1860
1632314,1879,1867,1861
1632324,1881,1866,1872
1632334,1872,1867,1879
1632344,1895,1863,1891
1632354,1909,1877,1915
1632364,1905,1884,1925
1632374,1907,1885,1936
1632384,1877,1881,1933
1632394,1927,1894,1954
1632404,1927,1901,1965
1632414,1923,1904,1968
1632424,1918,1904,1967
1632434,1899,1890,1942
1632444,1925,1909,1966
1632454,1919,1905,1952
1632464,1918,1899,1942
1632474,1904,1897,1936
1632484,1911,1879,1910
1632494,1903,1901,1918
1632504,1903,1867,1906
1632514,1893,1885,1898
1632524,1883,1877,1887
1632534,1873,1883,1886
1632544,1870,1872,1872
1632554,1887,1876,1876
1632564,1874,1870,1858
1632574,1867,1863,1854
1632584,1855,1853,1837
1632594,1856,1856,1837
1632604,1872,1866,1840
1632614,1869,1858,1840
1632624,1861,1855,1837
1632634,1843,1855,1837
1632644,1862,1855,1840
1632654,1894,1867,1850
1632664,1874,1861,1855
1632674,1872,1860,1853
1632684,1849,1859,1851
1632694,1877,1860,1856
1632704,1903,1863,1863
1632714,1883,1867,1872
1632724,1874,1860,1861
1632734,1840,1855,1857
1632744,1886,1870,1862
1632754,1882,1872,1872
1632764,1875,1866,1868
1632774,1874,1869,1864
1632784,1834,1843,1843
1632794,1883,1867,1863
1632804,1866,1863,1866
1632814,1873,1862,1857
1632824,1869,1861,1856
1632834,1843,1840,1831
1632844,1872,1859,1857
1632854,1868,1859,1854
1632864,1869,1861,1849
1632874,1870,1856,1847
1632884,1873,1841,1833
1632894,1866,1863,1849
1632904,1891,1866,1843
1632914,1872,1855,1851
1632924,1870,1857,1845
1632934,1857,1861,1851
1632944,1858,1855,1846
1632954,1901,1879,1850
1632964,1868,1858,1852
1632974,1870,1858,1847
1632984,1855,1862,1850
1632994,1860,1851,1845
1633004,1872,1872,1856
1633014,1870,1866,1853
1633024,1870,1856,1849
1633034,1858,1850,1841
1633044,1856,1853,1842
1633054,1874,1857,1851
1633064,1872,1861,1854
1633074,1865,1856,1849
1633084,1840,1854,1844
1633094,1867,1855,1846
1633104,1873,1861,1854
1633114,1877,1861,1853
1633124,1872,1856,1850
1633134,1842,1853,1851
1633144,1877,1858,1856
1633154,1888,1865,1875
1633164,1890,1871,1881
1633174,1891,1872,1894
1633184,1853,1861,1894
1633194,1909,1882,1924
1633204,1915,1894,1949
1633214,1919,1899,1952
1633224,1919,1895,1957
1633234,1881,1882,1951
1633244,1936,1904,1978
1633254,1926,1909,1981
1633264,1923,1910,1974
1633274,1923,1904,1969
1633284,1882,1886,1936
1633294,1930,1911,1963
1633304,1908,1905,1952
1633314,1907,1904,1939
1633324,1903,1895,1934
1633334,1873,1874,1901
1633344,1904,1900,1914
1633354,1885,1892,1902
1633364,1889,1887,1894
1633374,1883,1875,1881
1633384,1871,1856,1853
1633394,1877,1873,1867
1633404,1861,1862,1857
1633414,1872,1863,1852
1633424,1870,1862,1845
1633434,1872,1853,1837
1633444,1861,1856,1843
1633454,1861,1854,1840
1633464,1872,1851,1843
1633474,1867,1856,1840
1633484,1851,1858,1844
1633494,1863,1856,1851
1633504,1893,1862,1859
1633514,1872,1858,1859
1633524,1873,1859,1862
1633534,1855,1856,1859
1633544,1860,1861,1860
1633554,1891,1870,1874
1633564,1879,1870,1872
1633574,1873,1869,1866
1633584,1857,1856,1861
1633594,1863,1865,1858
1633604,1890,1871,1875
1633614,1872,1858,1859
1633624,1872,1857,1858
1633634,1856,1856,1849
1633644,1859,1856,1846
1633654,1874,1871,1863
1633664,1870,1863,1847
1633674,1871,1857,1850
1633684,1844,1847,1836
1633694,1852,1855,1841
1633704,1872,1866,1856
1633714,1867,1858,1849
1633724,1870,1858,1846
1633734,1840,1849,1843
1633744,1850,1851,1840
1633754,1872,1862,1856
1633764,1872,1857,1850
1633774,1869,1857,1851
1633784,1834,1846,1837
1633794,1861,1851,1841
1633804,1872,1859,1849
1633814,1874,1857,1853
1633824,1871,1857,1853
1633834,1831,1842,1833
1633844,1872,1851,1851
1633854,1861,1869,1857
1633864,1872,1859,1851
1633874,1870,1862,1846
1633884,1830,1841,1827
1633894,1874,1858,1851
1633904,1869,1858,1851
1633914,1872,1859,1855
1633924,1867,1854,1844
1633934,1827,1840,1822
1633944,1873,1857,1851
1633954,1866,1855,1850
1633964,1871,1861,1850
1633974,1871,1853,1847
1633984,1840,1835,1823
1633994,1872,1863,1854
1634004,1861,1858,1851
1634014,1872,1859,1855
1634024,1875,1867,1860
1634034,1872,1851,1842
1634044,1877,1872,1878
1634054,1872,1863,1885
1634064,1901,1873,1904
1634074,1903,1875,1917
1634084,1899,1887,1934
1634094,1906,1888,1949
1634104,1922,1889,1953
1634114,1926,1900,1969
1634124,1930,1902,1974
1634134,1908,1893,1969
1634144,1909,1904,1968
1634154,1936,1910,1979
1634164,1931,1905,1966
1634174,1922,1904,1963
1634184,1879,1889,1933
1634194,1903,1890,1934
1634204,1911,1903,1932
1634214,1906,1893,1917
1634224,1901,1890,1908
1634234,1855,1871,1883
1634244,1899,1879,1888
1634254,1883,1875,1878
1634264,1879,1873,1874
1634274,1875,1872,1859
1634284,1839,1846,1824
1634294,1877,1867,1849
1634304,1863,1863,1840
1634314,1867,1859,1844
1634324,1858,1852,1838
1634334,1863,1840,1821
1634344,1861,1867,1840
1634354,1856,1854,1832
1634364,1870,1855,1840
1634374,1870,1856,1840
1634384,1857,1859,1854
1634394,1856,1856,1846
1634404,1879,1853,1853
1634414,1874,1853,1858
1634424,1875,1859,1862
1634434,1851,1857,1856
1634444,1868,1856,1867
1634454,1878,1862,1878
1634464,1873,1849,1862
1634474,1877,1865,1850
1634484,1846,1844,1855
1634494,1850,1859,1856
1634504,1874,1865,1869
1634514,1872,1846,1856
1634524,1869,1855,1853
1634534,1829,1846,1837
1634544,1851,1852,1840
1634554,1872,1861,1850
1634564,1870,1855,1847
1634574,1862,1855,1844
1634584,1829,1839,1824
1634594,1859,1842,1834
1634604,1872,1863,1845
1634614,1871,1859,1842
1634624,1863,1855,1842
1634634,1824,1840,1821
1634644,1871,1854,1839
1634654,1859,1860,1844
1634664,1867,1859,1840
1634674,1869,1858,1836
1634684,1865,1844,1813
1634694,1868,1857,1840
1634704,1858,1855,1837
1634714,1866,1855,1842
