timestamp_ms_device,ppg_finger1,ppg_finger2,ppg_finger3
577574,1858,1855,1842
577584,1860,1853,1841
577594,1863,1856,1841
577604,1859,1856,1842
577614,1859,1854,1842
577624,1867,1853,1845
577634,1865,1856,1843
577644,1867,1857,1847
577654,1868,1856,1849
577664,1869,1857,1852
577674,1871,1857,1850
577684,1871,1854,1855
577694,1872,1857,1853
577704,1872,1858,1851
577714,1870,1858,1851
577724,1870,1857,1853
577734,1866,1857,1852
577744,1867,1857,1850
577754,1868,1857,1846
577764,1863,1857,1849
577774,1863,1856,1844
577784,1865,1857,1845
577794,1859,1856,1845
577804,1859,1855,1845
577814,1857,1853,1843
577824,1857,1851,1842
577834,1856,1855,1842
577844,1855,1854,1843
577854,1856,1854,1845
577864,1857,1855,1843
577874,1857,1851,1845
577884,1857,1851,1844
577894,1856,1853,1849
577904,1856,1854,1847
577914,1856,1856,1847
577924,1856,1855,1849
577934,1857,1856,1852
577944,1856,1856,1850
577954,1858,1855,1849
577964,1861,1856,1850
577974,1860,1856,1851
577984,1861,1855,1852
577994,1859,1855,1849
578004,1861,1852,1853
578014,1861,1854,1847
578024,1863,1853,1850
578034,1865,1853,1854
578044,1867,1855,1854
578054,1869,1850,1856
578064,1872,1854,1862
578074,1875,1855,1867
578084,1880,1856,1872
578094,1886,1859,1877
578104,1893,1861,1885
578114,1895,1863,1887
578124,1895,1862,1894
578134,1901,1863,1901
578144,1897,1864,1898
578154,1899,1866,1899
578164,1889,1865,1898
578174,1890,1865,1895
578184,1887,1862,1891
578194,1883,1862,1883
578204,1879,1863,1882
578214,1875,1859,1879
578224,1872,1859,1875
578234,1872,1857,1872
578244,1870,1856,1867
578254,1866,1857,1866
578264,1866,1856,1856
578274,1859,1854,1854
578284,1858,1856,1847
578294,1858,1856,1849
578304,1857,1855,1843
578314,1856,1855,1841
578324,1856,1855,1843
578334,1857,1854,1841
578344,1857,1854,1842
578354,1860,1855,1844
578364,1860,1855,1841
578374,1862,1854,1843
578384,1867,1855,1843
578394,1865,1854,1850
578404,1861,1854,1847
578414,1863,1850,1852
578424,1866,1851,1854
578434,1866,1853,1853
578444,1866,1854,1852
578454,1865,1853,1854
578464,1865,1852,1853
578474,1862,1850,1851
578484,1860,1853,1854
578494,1861,1851,1853
578504,1861,1853,1854
578514,1857,1851,1847
578524,1861,1851,1849
578534,1859,1853,1848
578544,1859,1853,1847
578554,1861,1852,1845
578564,1858,1853,1844
578574,1861,1851,1843
578584,1855,1851,1844
578594,1853,1849,1842
578604,1857,1850,1842
578614,1859,1851,1842
578624,1856,1852,1843
578634,1856,1850,1843
578644,1856,1851,1841
578654,1859,1849,1840
578664,1858,1851,1843
578674,1857,1850,1843
578684,1858,1847,1841
578694,1859,1850,1842
578704,1857,1851,1841
578714,1857,1849,1840
578724,1857,1849,1845
578734,1861,1851,1847
578744,1861,1850,1846
578754,1865,1850,1851
578764,1870,1849,1853
578774,1872,1850,1857
578784,1875,1853,1863
578794,1879,1854,1865
578804,1888,1855,1870
578814,1890,1856,1872
578824,1893,1857,1872
578834,1893,1859,1873
578844,1894,1858,1875
578854,1889,1858,1873
578864,1887,1857,1875
578874,1882,1856,1873
578884,1878,1855,1870
578894,1877,1854,1867
578904,1872,1855,1863
578914,1870,1854,1859
578924,1863,1851,1857
578934,1867,1854,1855
578944,1863,1854,1854
578954,1858,1850,1851
578964,1858,1850,1849
578974,1857,1852,1846
578984,1856,1847,1843
578994,1853,1847,1843
579004,1855,1850,1842
579014,1858,1847,1843
579024,1855,1849,1843
579034,1856,1853,1847
579044,1859,1850,1847
579054,1863,1851,1849
579064,1862,1853,1850
579074,1863,1850,1854
579084,1866,1850,1854
579094,1867,1853,1856
579104,1863,1851,1853
579114,1868,1853,1856
579124,1868,1853,1856
579134,1865,1851,1855
579144,1867,1853,1856
579154,1863,1855,1856
579164,1864,1856,1856
579174,1865,1852,1852
579184,1860,1854,1854
579194,1861,1854,1853
579204,1858,1854,1847
579214,1857,1853,1845
579224,1858,1855,1849
579234,1856,1851,1847
579244,1856,1855,1842
579254,1855,1855,1843
579264,1854,1855,1842
579274,1855,1851,1840
579284,1854,1853,1841
579294,1855,1849,1841
579304,1857,1854,1840
579314,1858,1852,1840
579324,1861,1854,1841
579334,1862,1853,1840
579344,1859,1853,1842
579354,1860,1852,1841
579364,1863,1850,1840
579374,1865,1853,1840
579384,1863,1850,1840
579394,1863,1851,1840
579404,1862,1850,1844
579414,1867,1851,1846
579424,1869,1854,1853
579434,1874,1856,1854
579444,1877,1856,1860
579454,1884,1858,1866
579464,1889,1859,1871
579474,1894,1863,1872
579484,1898,1866,1879
579494,1903,1867,1887
579504,1903,1870,1889
579514,1903,1872,1889
579524,1903,1872,1892
579534,1899,1872,1893
579544,1895,1872,1891
579554,1889,1871,1890
579564,1883,1871,1886
579574,1878,1870,1875
579584,1872,1869,1874
579594,1872,1868,1872
579604,1867,1868,1868
579614,1868,1865,1862
579624,1861,1861,1857
579634,1858,1857,1854
579644,1855,1856,1847
579654,1859,1856,1842
579664,1852,1858,1841
579674,1852,1854,1840
579684,1855,1853,1840
579694,1857,1854,1839
579704,1859,1853,1840
579714,1859,1855,1841
579724,1862,1855,1840
579734,1861,1853,1840
579744,1865,1856,1841
579754,1867,1852,1845
579764,1867,1855,1847
579774,1865,1856,1843
579784,1871,1856,1849
579794,1869,1857,1847
579804,1870,1855,1843
579814,1869,1856,1851
579824,1866,1857,1853
579834,1863,1856,1845
579844,1864,1856,1849
579854,1866,1854,1846
579864,1862,1856,1842
579874,1863,1854,1840
579884,1860,1854,1840
579894,1859,1851,1837
579904,1860,1853,1834
579914,1858,1852,1831
579924,1860,1853,1832
579934,1857,1851,1831
579944,1857,1854,1832
579954,1859,1852,1831
579964,1856,1852,1829
579974,1857,1850,1831
579984,1854,1850,1833
579994,1859,1854,1834
580004,1861,1855,1839
580014,1858,1856,1838
580024,1862,1851,1838
580034,1862,1854,1840
580044,1865,1852,1839
580054,1863,1850,1841
580064,1863,1853,1840
580074,1862,1853,1840
580084,1862,1854,1842
580094,1860,1853,1844
580104,1863,1856,1843
580114,1867,1854,1843
580124,1863,1851,1844
580134,1863,1850,1847
580144,1869,1855,1852
580154,1872,1857,1853
580164,1873,1856,1860
580174,1878,1858,1865
580184,1887,1863,1872
580194,1894,1858,1877
580204,1897,1865,1879
580214,1904,1867,1890
580224,1903,1870,1893
580234,1904,1872,1898
580244,1903,1872,1899
580254,1903,1872,1901
580264,1901,1872,1903
580274,1897,1872,1901
580284,1891,1872,1895
580294,1887,1871,1891
580304,1879,1871,1889
580314,1874,1867,1883
580324,1872,1870,1878
580334,1869,1867,1873
580344,1863,1861,1872
580354,1863,1862,1867
580364,1860,1859,1866
580374,1857,1859,1858
580384,1856,1857,1856
580394,1856,1856,1852
580404,1855,1851,1851
580414,1855,1853,1849
580424,1855,1853,1846
580434,1858,1852,1847
580444,1858,1853,1845
580454,1859,1850,1849
580464,1862,1854,1849
580474,1862,1854,1847
580484,1863,1854,1846
580494,1871,1854,1851
580504,1869,1856,1850
580514,1871,1856,1851
580524,1871,1857,1854
580534,1869,1858,1855
580544,1869,1856,1855
580554,1869,1859,1855
580564,1868,1859,1856
580574,1865,1858,1856
580584,1869,1856,1855
580594,1867,1855,1855
580604,1865,1856,1853
580614,1865,1858,1855
580624,1865,1856,1851
580634,1865,1855,1854
580644,1863,1856,1847
580654,1863,1855,1849
580664,1863,1853,1846
580674,1866,1855,1847
580684,1859,1857,1842
580694,1862,1853,1843
580704,1866,1855,1840
580714,1863,1853,1840
580724,1865,1854,1842
580734,1860,1853,1842
580744,1863,1855,1840
580754,1863,1856,1840
580764,1866,1855,1840
580774,1863,1855,1840
580784,1863,1855,1840
580794,1859,1854,1841
580804,1865,1854,1841
580814,1858,1855,1841
580824,1859,1856,1842
580834,1858,1849,1840
580844,1859,1854,1842
580854,1857,1851,1842
580864,1857,1852,1841
580874,1855,1853,1842
580884,1854,1854,1843
580894,1861,1855,1847
580904,1861,1853,1850
580914,1869,1854,1857
580924,1872,1856,1863
580934,1877,1858,1869
580944,1884,1859,1873
580954,1892,1865,1883
580964,1898,1867,1897
580974,1901,1870,1899
580984,1904,1872,1904
580994,1904,1872,1904
581004,1904,1874,1905
581014,1903,1872,1904
581024,1901,1875,1905
581034,1893,1873,1904
581044,1887,1873,1899
581054,1884,1872,1897
581064,1881,1872,1893
581074,1875,1872,1889
581084,1872,1872,1883
581094,1872,1866,1877
581104,1870,1863,1871
581114,1867,1863,1867
581124,1865,1863,1861
581134,1861,1856,1858
581144,1859,1858,1855
581154,1862,1858,1851
581164,1861,1857,1849
581174,1861,1856,1847
581184,1863,1856,1847
581194,1866,1855,1846
581204,1865,1855,1852
581214,1866,1854,1851
581224,1867,1859,1854
581234,1869,1858,1854
581244,1871,1856,1857
581254,1870,1859,1861
581264,1869,1859,1863
581274,1870,1860,1859
581284,1871,1859,1861
581294,1871,1861,1862
581304,1871,1859,1859
581314,1871,1861,1865
581324,1872,1863,1863
581334,1872,1859,1861
581344,1870,1861,1859
581354,1867,1856,1857
581364,1867,1860,1855
581374,1861,1857,1855
581384,1865,1858,1852
581394,1862,1857,1849
581404,1860,1856,1850
581414,1866,1856,1849
581424,1859,1856,1847
581434,1859,1856,1845
581444,1863,1854,1842
581454,1863,1854,1843
581464,1859,1856,1841
581474,1863,1856,1843
581484,1862,1856,1843
581494,1865,1855,1842
581504,1865,1856,1840
581514,1867,1855,1843
581524,1866,1853,1844
581534,1866,1856,1843
581544,1867,1856,1844
581554,1867,1855,1845
581564,1867,1857,1851
581574,1870,1856,1850
581584,1867,1854,1850
581594,1867,1857,1843
581604,1869,1857,1847
581614,1869,1856,1845
581624,1866,1856,1847
581634,1867,1857,1848
581644,1867,1858,1849
581654,1865,1855,1847
581664,1866,1857,1846
581674,1866,1858,1844
581684,1865,1854,1845
581694,1863,1855,1846
581704,1868,1857,1845
581714,1869,1855,1849
581724,1872,1857,1855
581734,1876,1860,1859
581744,1882,1857,1867
581754,1889,1866,1872
581764,1894,1867,1878
581774,1897,1871,1885
581784,1904,1872,1891
581794,1901,1872,1901
581804,1903,1875,1901
581814,1903,1872,1902
581824,1898,1874,1901
581834,1898,1877,1904
581844,1894,1874,1902
581854,1888,1874,1900
581864,1886,1873,1897
581874,1877,1872,1889
581884,1876,1871,1887
581894,1874,1872,1885
581904,1872,1871,1877
581914,1869,1867,1872
581924,1868,1868,1869
581934,1867,1865,1866
581944,1863,1863,1862
581954,1863,1863,1859
581964,1861,1861,1856
581974,1860,1860,1851
581984,1858,1857,1851
581994,1860,1861,1853
582004,1862,1859,1852
582014,1859,1858,1855
582024,1862,1856,1854
582034,1863,1857,1854
582044,1865,1858,1854
582054,1869,1857,1856
582064,1871,1857,1859
582074,1871,1856,1859
582084,1871,1857,1861
582094,1868,1858,1862
582104,1869,1858,1858
582114,1868,1857,1862
582124,1867,1857,1861
582134,1867,1857,1861
582144,1866,1857,1859
582154,1862,1855,1859
582164,1859,1855,1858
582174,1859,1856,1855
582184,1863,1856,1851
582194,1861,1856,1855
582204,1859,1856,1854
582214,1858,1856,1853
582224,1858,1856,1849
582234,1861,1855,1851
582244,1857,1854,1845
582254,1857,1857,1846
582264,1857,1856,1842
582274,1858,1855,1846
582284,1857,1850,1846
582294,1861,1856,1844
582304,1857,1855,1845
582314,1857,1855,1841
582324,1857,1854,1845
582334,1859,1854,1845
582344,1859,1854,1844
582354,1860,1855,1845
582364,1861,1853,1846
582374,1860,1855,1849
582384,1859,1853,1850
582394,1860,1855,1849
582404,1862,1853,1849
582414,1861,1855,1847
582424,1861,1853,1849
582434,1861,1853,1851
582444,1859,1855,1846
582454,1859,1854,1850
582464,1857,1853,1846
582474,1858,1855,1851
582484,1856,1851,1849
582494,1857,1854,1846
582504,1857,1851,1850
582514,1859,1853,1850
582524,1858,1851,1854
582534,1862,1853,1856
582544,1870,1857,1861
582554,1873,1859,1865
582564,1881,1856,1873
582574,1885,1860,1878
582584,1891,1865,1885
582594,1898,1869,1891
582604,1901,1872,1895
582614,1901,1872,1901
582624,1902,1872,1904
582634,1902,1872,1904
582644,1896,1871,1904
582654,1891,1872,1903
582664,1887,1874,1902
582674,1885,1873,1895
582684,1882,1870,1891
582694,1873,1870,1883
582704,1871,1865,1879
582714,1866,1863,1877
582724,1861,1863,1872
582734,1862,1858,1867
582744,1859,1857,1859
582754,1857,1856,1858
582764,1855,1854,1855
582774,1851,1853,1855
582784,1853,1853,1850
582794,1853,1854,1846
582804,1853,1853,1845
582814,1856,1853,1841
582824,1857,1854,1846
582834,1859,1855,1845
582844,1862,1853,1845
582854,1863,1856,1847
582864,1863,1856,1851
582874,1865,1856,1855
582884,1867,1857,1853
582894,1868,1856,1855
582904,1868,1860,1856
582914,1871,1857,1856
582924,1869,1856,1858
582934,1869,1859,1856
582944,1867,1860,1857
582954,1867,1857,1856
582964,1863,1856,1857
582974,1865,1856,1852
582984,1862,1857,1851
582994,1859,1856,1853
583004,1859,1856,1852
583014,1859,1858,1850
583024,1859,1853,1851
583034,1858,1856,1849
583044,1859,1856,1847
583054,1859,1855,1849
583064,1859,1855,1845
583074,1856,1854,1842
583084,1862,1853,1847
583094,1855,1854,1845
583104,1859,1852,1846
583114,1859,1854,1847
583124,1859,1854,1846
583134,1858,1853,1846
583144,1860,1854,1845
583154,1862,1854,1849
583164,1862,1853,1850
583174,1863,1855,1849
583184,1862,1856,1851
583194,1863,1856,1851
583204,1862,1854,1853
583214,1859,1856,1849
583224,1861,1856,1851
583234,1863,1856,1850
583244,1863,1856,1847
583254,1865,1856,1851
583264,1862,1856,1850
583274,1863,1856,1850
583284,1863,1854,1853
583294,1863,1857,1854
583304,1868,1856,1856
583314,1873,1858,1857
583324,1876,1861,1865
583334,1884,1863,1872
583344,1887,1862,1878
583354,1891,1863,1884
583364,1898,1870,1888
583374,1901,1872,1895
583384,1904,1872,1899
583394,1903,1872,1904
583404,1898,1878,1904
583414,1899,1873,1903
583424,1900,1874,1902
583434,1891,1874,1902
583444,1887,1873,1892
583454,1878,1873,1889
583464,1874,1872,1884
583474,1872,1866,1877
583484,1871,1867,1873
583494,1862,1863,1870
583504,1859,1861,1869
583514,1856,1859,1859
583524,1856,1858,1856
583534,1855,1857,1855
583544,1854,1856,1851
583554,1855,1853,1847
583564,1854,1854,1843
583574,1855,1852,1842
583584,1857,1849,1846
583594,1861,1851,1846
583604,1858,1851,1850
583614,1865,1854,1854
583624,1867,1854,1853
583634,1869,1855,1852
583644,1871,1854,1858
583654,1868,1854,1857
583664,1870,1858,1859
583674,1871,1853,1858
583684,1870,1857,1861
583694,1867,1857,1857
583704,1867,1857,1858
583714,1865,1855,1859
583724,1865,1858,1858
583734,1863,1857,1856
583744,1863,1855,1854
583754,1859,1855,1854
583764,1859,1855,1850
583774,1860,1854,1847
583784,1861,1853,1846
583794,1862,1856,1847
583804,1856,1851,1845
583814,1857,1851,1842
583824,1856,1851,1843
583834,1858,1847,1841
583844,1861,1853,1844
583854,1858,1852,1842
583864,1858,1851,1845
583874,1857,1853,1841
583884,1860,1851,1843
583894,1859,1853,1845
583904,1859,1855,1846
583914,1861,1854,1843
583924,1861,1851,1846
583934,1861,1851,1844
583944,1863,1854,1847
583954,1866,1855,1845
583964,1862,1852,1845
583974,1865,1853,1847
583984,1865,1853,1850
583994,1866,1856,1851
584004,1867,1854,1852
584014,1870,1854,1853
584024,1872,1857,1857
584034,1877,1859,1861
584044,1882,1862,1869
584054,1889,1862,1872
584064,1893,1867,1879
584074,1897,1870,1885
584084,1903,1870,1893
584094,1903,1872,1897
584104,1904,1872,1901
584114,1901,1873,1903
584124,1899,1873,1904
584134,1894,1875,1902
584144,1891,1875,1900
584154,1885,1875,1896
584164,1883,1872,1892
584174,1874,1872,1889
584184,1872,1872,1883
584194,1871,1866,1873
584204,1871,1867,1872
584214,1862,1863,1863
584224,1862,1858,1861
584234,1857,1862,1856
584244,1854,1856,1853
584254,1855,1855,1850
584264,1855,1856,1847
584274,1854,1856,1842
584284,1855,1851,1845
584294,1856,1855,1845
584304,1856,1853,1847
584314,1861,1852,1845
584324,1861,1853,1850
584334,1866,1854,1852
584344,1866,1854,1853
584354,1870,1856,1854
584364,1869,1857,1857
584374,1872,1861,1857
584384,1872,1853,1858
584394,1872,1858,1857
584404,1872,1861,1861
584414,1872,1858,1860
584424,1867,1858,1857
584434,1867,1858,1859
584444,1867,1858,1858
584454,1862,1857,1856
584464,1863,1858,1853
584474,1859,1857,1853
584484,1859,1857,1852
584494,1859,1855,1851
584504,1863,1855,1851
584514,1860,1855,1849
584524,1859,1856,1850
584534,1858,1853,1845
584544,1858,1853,1843
584554,1860,1852,1845
584564,1858,1854,1843
584574,1861,1853,1846
584584,1861,1854,1847
584594,1863,1855,1843
584604,1866,1856,1843
584614,1862,1855,1842
584624,1865,1855,1843
584634,1867,1855,1846
584644,1867,1856,1850
584654,1867,1856,1847
584664,1867,1856,1847
584674,1865,1854,1849
584684,1865,1854,1852
584694,1866,1855,1847
584704,1865,1856,1844
584714,1866,1854,1850
584724,1863,1854,1847
584734,1863,1855,1853
584744,1863,1855,1853
584754,1866,1856,1853
584764,1869,1856,1857
584774,1873,1856,1858
584784,1873,1860,1866
584794,1882,1860,1872
584804,1889,1866,1879
584814,1897,1866,1885
584824,1903,1870,1895
584834,1905,1872,1898
584844,1906,1874,1904
584854,1904,1875,1907
584864,1904,1878,1909
584874,1903,1879,1909
584884,1903,1878,1905
584894,1895,1879,1905
584904,1890,1874,1904
584914,1886,1875,1903
584924,1883,1872,1891
584934,1875,1872,1890
584944,1872,1870,1881
584954,1870,1869,1876
584964,1866,1866,1872
584974,1862,1861,1867
584984,1861,1860,1861
584994,1857,1857,1856
585004,1856,1855,1855
585014,1855,1854,1851
585024,1857,1855,1845
585034,1857,1855,1847
585044,1857,1853,1849
585054,1858,1854,1847
585064,1862,1855,1847
585074,1864,1852,1851
585084,1867,1855,1851
585094,1867,1854,1853
585104,1869,1855,1853
585114,1871,1857,1856
585124,1872,1856,1857
585134,1872,1856,1857
585144,1872,1856,1856
585154,1870,1858,1861
585164,1871,1860,1859
585174,1870,1857,1859
585184,1869,1858,1856
585194,1867,1857,1858
585204,1865,1857,1856
585214,1866,1859,1855
585224,1863,1858,1852
585234,1863,1854,1852
585244,1859,1858,1850
585254,1858,1856,1846
585264,1859,1855,1846
585274,1858,1852,1847
585284,1855,1854,1846
585294,1857,1853,1843
585304,1858,1853,1845
585314,1859,1855,1844
585324,1856,1855,1845
585334,1860,1852,1844
585344,1856,1851,1847
585354,1861,1853,1847
585364,1862,1853,1844
585374,1863,1855,1846
585384,1862,1855,1845
585394,1861,1854,1846
585404,1866,1853,1847
585414,1862,1853,1847
585424,1863,1852,1846
585434,1865,1854,1847
585444,1864,1854,1847
585454,1865,1854,1853
585464,1863,1853,1854
585474,1862,1856,1849
585484,1861,1852,1850
585494,1862,1853,1850
585504,1866,1846,1853
585514,1862,1855,1853
585524,1866,1850,1854
585534,1870,1857,1856
585544,1872,1856,1861
585554,1872,1856,1863
585564,1879,1858,1871
585574,1887,1861,1877
585584,1894,1867,1885
585594,1899,1872,1889
585604,1903,1872,1899
585614,1904,1871,1903
585624,1906,1872,1906
585634,1906,1872,1911
585644,1904,1875,1914
585654,1904,1879,1907
585664,1899,1878,1905
585674,1897,1878,1904
585684,1892,1874,1901
585694,1887,1872,1897
585704,1878,1872,1889
585714,1875,1872,1887
585724,1871,1871,1878
585734,1869,1866,1875
585744,1863,1861,1867
585754,1862,1862,1865
585764,1859,1861,1858
585774,1860,1858,1856
585784,1857,1856,1850
585794,1858,1856,1850
585804,1855,1855,1847
585814,1856,1854,1845
585824,1856,1853,1847
585834,1856,1855,1847
585844,1861,1855,1846
585854,1862,1856,1851
585864,1867,1857,1854
585874,1869,1857,1857
585884,1869,1857,1856
585894,1872,1857,1860
585904,1870,1857,1857
585914,1872,1858,1865
585924,1872,1859,1862
585934,1871,1859,1858
585944,1872,1858,1859
585954,1871,1858,1860
585964,1867,1857,1857
585974,1869,1859,1857
585984,1865,1858,1856
585994,1865,1855,1853
586004,1866,1856,1855
586014,1861,1857,1851
586024,1863,1857,1850
586034,1859,1858,1847
586044,1861,1855,1845
586054,1859,1855,1845
586064,1862,1857,1843
586074,1859,1856,1846
586084,1857,1852,1842
586094,1856,1851,1841
586104,1857,1851,1846
586114,1859,1853,1844
586124,1858,1853,1843
586134,1860,1855,1843
586144,1862,1855,1845
586154,1863,1853,1845
586164,1859,1854,1845
586174,1861,1855,1847
586184,1859,1853,1850
586194,1858,1854,1846
586204,1866,1855,1847
586214,1865,1855,1846
586224,1865,1857,1845
586234,1862,1853,1847
586244,1863,1856,1846
586254,1861,1854,1845
586264,1863,1856,1846
586274,1862,1855,1845
586284,1866,1854,1849
586294,1865,1853,1847
586304,1866,1853,1851
586314,1871,1856,1855
586324,1872,1856,1856
586334,1874,1859,1860
586344,1881,1862,1870
586354,1888,1863,1875
586364,1893,1870,1884
586374,1902,1872,1890
586384,1904,1873,1902
586394,1904,1874,1903
586404,1904,1875,1905
586414,1904,1879,1907
586424,1903,1877,1906
586434,1894,1874,1906
586444,1894,1875,1904
586454,1891,1877,1903
586464,1887,1873,1894
586474,1878,1872,1891
586484,1874,1872,1882
586494,1872,1867,1875
586504,1869,1868,1872
586514,1866,1865,1867
586524,1863,1862,1859
586534,1859,1860,1857
586544,1856,1857,1853
586554,1855,1855,1847
586564,1854,1853,1848
586574,1855,1853,1842
586584,1856,1851,1847
586594,1860,1854,1841
586604,1858,1851,1843
586614,1861,1854,1845
586624,1866,1853,1847
586634,1867,1853,1846
586644,1867,1854,1854
586654,1869,1856,1855
586664,1870,1858,1853
586674,1871,1860,1856
586684,1871,1856,1855
586694,1870,1857,1855
586704,1869,1859,1859
586714,1869,1859,1858
586724,1868,1857,1856
586734,1865,1857,1855
586744,1865,1858,1855
586754,1865,1857,1854
586764,1866,1855,1853
586774,1867,1855,1853
586784,1861,1855,1852
586794,1858,1853,1849
586804,1857,1853,1850
586814,1861,1854,1845
586824,1856,1854,1844
586834,1858,1850,1843
586844,1859,1851,1843
586854,1857,1851,1843
586864,1859,1853,1843
586874,1857,1853,1842
586884,1857,1853,1845
586894,1857,1851,1843
586904,1859,1851,1845
586914,1859,1855,1842
586924,1862,1853,1843
586934,1858,1853,1846
586944,1858,1852,1845
586954,1861,1852,1850
586964,1861,1853,1845
586974,1865,1853,1847
586984,1861,1854,1849
586994,1862,1853,1849
587004,1864,1855,1843
587014,1865,1854,1849
587024,1863,1853,1851
587034,1863,1855,1847
587044,1863,1854,1847
587054,1861,1851,1851
587064,1863,1852,1850
587074,1862,1855,1849
587084,1867,1854,1854
587094,1872,1858,1856
587104,1873,1859,1862
587114,1876,1862,1867
587124,1887,1867,1872
587134,1890,1866,1883
587144,1899,1866,1888
587154,1901,1872,1893
587164,1904,1874,1902
587174,1904,1873,1904
587184,1903,1876,1905
587194,1904,1875,1905
587204,1902,1877,1904
587214,1899,1875,1904
587224,1890,1873,1898
587234,1887,1874,1893
587244,1881,1872,1883
587254,1874,1872,1882
587264,1872,1867,1873
587274,1867,1867,1872
587284,1865,1862,1865
587294,1859,1862,1859
587304,1857,1858,1855
587314,1856,1854,1850
587324,1855,1856,1845
587334,1854,1855,1846
587344,1853,1853,1845
587354,1854,1854,1843
587364,1856,1853,1843
587374,1856,1850,1842
587384,1858,1854,1849
587394,1865,1851,1846
587404,1863,1855,1848
587414,1866,1856,1849
587424,1872,1857,1856
587434,1871,1855,1855
587444,1872,1856,1859
587454,1872,1858,1858
587464,1872,1859,1858
587474,1871,1857,1860
587484,1870,1857,1861
587494,1871,1857,1859
587504,1871,1856,1855
587514,1863,1856,1858
587524,1866,1856,1855
587534,1861,1856,1855
587544,1862,1855,1854
587554,1862,1853,1853
587564,1858,1854,1853
587574,1860,1851,1850
587584,1859,1854,1849
587594,1858,1853,1845
587604,1857,1851,1845
587614,1856,1849,1845
587624,1857,1851,1843
587634,1857,1850,1842
587644,1858,1851,1843
587654,1860,1855,1845
587664,1859,1854,1846
587674,1863,1851,1848
587684,1862,1852,1843
587694,1863,1853,1846
587704,1865,1853,1845
587714,1868,1855,1847
587724,1864,1852,1847
587734,1864,1853,1846
587744,1867,1856,1851
587754,1867,1854,1851
587764,1863,1855,1847
587774,1866,1856,1847
587784,1866,1856,1851
587794,1865,1854,1851
587804,1863,1853,1851
587814,1865,1856,1850
587824,1867,1856,1854
587834,1870,1856,1855
587844,1871,1856,1859
587854,1875,1858,1865
587864,1877,1863,1870
587874,1889,1863,1874
587884,1895,1871,1879
587894,1899,1868,1888
587904,1904,1872,1894
587914,1905,1877,1903
587924,1906,1880,1904
587934,1905,1881,1904
587944,1904,1879,1908
587954,1902,1879,1907
587964,1901,1875,1904
587974,1895,1875,1903
587984,1892,1877,1899
587994,1887,1874,1898
588004,1878,1873,1887
588014,1874,1872,1883
588024,1872,1867,1874
588034,1870,1866,1872
588044,1868,1866,1870
588054,1863,1861,1860
588064,1862,1859,1858
588074,1860,1859,1852
588084,1859,1856,1849
588094,1856,1854,1845
588104,1856,1853,1844
588114,1858,1853,1846
588124,1860,1853,1843
588134,1859,1853,1842
588144,1861,1857,1846
588154,1861,1853,1847
588164,1867,1854,1847
588174,1870,1857,1853
588184,1872,1857,1854
588194,1872,1857,1856
588204,1872,1857,1858
588214,1873,1857,1857
588224,1872,1857,1857
588234,1872,1859,1856
588244,1872,1859,1857
588254,1871,1857,1858
588264,1871,1859,1855
588274,1869,1854,1857
588284,1865,1857,1856
588294,1869,1855,1851
588304,1863,1853,1851
588314,1862,1855,1852
588324,1861,1853,1850
588334,1863,1852,1845
588344,1859,1850,1842
588354,1858,1851,1845
588364,1856,1853,1843
588374,1859,1851,1843
588384,1858,1852,1843
588394,1856,1852,1842
588404,1857,1851,1842
588414,1861,1850,1841
588424,1858,1856,1842
588434,1861,1853,1842
588444,1859,1855,1841
588454,1863,1854,1841
588464,1863,1850,1847
588474,1859,1851,1845
588484,1861,1853,1847
588494,1862,1850,1846
588504,1861,1851,1850
588514,1865,1854,1849
588524,1861,1853,1846
588534,1865,1851,1849
588544,1865,1850,1848
588554,1865,1851,1849
588564,1863,1851,1850
588574,1863,1853,1847
588584,1862,1850,1849
588594,1868,1854,1847
588604,1867,1854,1850
588614,1869,1854,1854
588624,1870,1856,1856
588634,1872,1857,1860
588644,1879,1858,1871
588654,1887,1866,1874
588664,1892,1869,1879
588674,1900,1872,1887
588684,1904,1872,1894
588694,1905,1874,1904
588704,1913,1879,1906
588714,1909,1882,1913
588724,1910,1884,1911
588734,1904,1883,1912
588744,1904,1883,1909
588754,1904,1882,1906
588764,1893,1877,1904
588774,1889,1875,1898
588784,1885,1876,1891
588794,1878,1872,1887
588804,1872,1870,1883
588814,1872,1867,1873
588824,1870,1867,1872
588834,1865,1863,1866
588844,1862,1858,1858
588854,1860,1859,1855
588864,1859,1855,1853
588874,1861,1855,1850
588884,1855,1856,1845
588894,1856,1854,1846
588904,1857,1857,1845
588914,1861,1856,1845
588924,1863,1855,1846
588934,1863,1855,1847
588944,1861,1853,1850
588954,1867,1855,1853
588964,1867,1856,1855
588974,1871,1856,1856
588984,1872,1857,1858
588994,1872,1857,1856
589004,1870,1858,1856
589014,1872,1857,1859
589024,1871,1856,1855
589034,1870,1856,1857
589044,1871,1857,1854
589054,1867,1858,1853
589064,1869,1856,1856
589074,1862,1857,1853
589084,1861,1856,1855
589094,1863,1856,1854
589104,1859,1856,1850
589114,1860,1853,1848
589124,1858,1856,1846
589134,1857,1853,1849
589144,1857,1853,1846
589154,1858,1854,1846
589164,1858,1851,1847
589174,1857,1855,1845
589184,1858,1852,1840
589194,1858,1852,1846
589204,1859,1853,1844
589214,1861,1854,1844
589224,1857,1851,1843
589234,1859,1847,1846
589244,1862,1850,1845
589254,1860,1853,1844
589264,1859,1854,1847
589274,1862,1854,1847
589284,1862,1855,1845
589294,1862,1853,1848
589304,1862,1855,1846
589314,1862,1854,1851
589324,1863,1853,1846
589334,1861,1855,1850
589344,1863,1853,1847
589354,1865,1854,1847
589364,1863,1853,1847
589374,1863,1855,1850
589384,1862,1855,1851
589394,1863,1852,1851
589404,1864,1855,1847
589414,1865,1853,1851
589424,1870,1857,1855
589434,1872,1857,1858
589444,1875,1861,1862
589454,1885,1863,1869
589464,1891,1867,1874
589474,1899,1863,1884
589484,1904,1872,1889
589494,1904,1872,1898
589504,1910,1874,1904
589514,1909,1881,1904
589524,1913,1879,1909
589534,1909,1879,1914
589544,1905,1885,1911
589554,1903,1877,1906
589564,1899,1878,1903
589574,1893,1877,1901
589584,1888,1874,1889
589594,1883,1872,1887
589604,1875,1872,1883
589614,1872,1872,1874
589624,1870,1867,1872
589634,1867,1866,1867
589644,1865,1860,1863
589654,1861,1858,1855
589664,1857,1858,1851
589674,1856,1856,1847
589684,1855,1855,1846
589694,1854,1854,1843
589704,1856,1856,1845
589714,1857,1852,1845
589724,1856,1853,1845
589734,1861,1855,1844
589744,1865,1856,1846
589754,1869,1856,1850
589764,1865,1855,1854
589774,1871,1853,1856
589784,1868,1856,1853
589794,1872,1858,1857
589804,1870,1857,1855
589814,1872,1857,1857
589824,1869,1859,1856
589834,1870,1861,1856
589844,1867,1859,1856
589854,1869,1858,1854
589864,1862,1858,1856
589874,1866,1856,1854
589884,1862,1858,1853
589894,1861,1857,1849
589904,1862,1854,1849
589914,1859,1854,1853
589924,1856,1855,1847
589934,1861,1853,1845
589944,1858,1855,1843
589954,1859,1854,1843
589964,1856,1855,1842
589974,1856,1854,1841
589984,1858,1855,1841
589994,1856,1853,1844
590004,1856,1853,1843
590014,1857,1854,1844
590024,1857,1853,1841
590034,1860,1853,1845
590044,1857,1849,1845
590054,1859,1853,1845
590064,1861,1851,1845
590074,1858,1853,1847
590084,1857,1851,1846
590094,1861,1851,1846
590104,1862,1854,1850
590114,1863,1852,1850
590124,1863,1851,1845
590134,1866,1851,1846
590144,1865,1851,1851
590154,1867,1853,1847
590164,1865,1852,1850
590174,1866,1853,1850
590184,1865,1852,1847
590194,1866,1849,1846
590204,1868,1853,1852
590214,1867,1854,1849
590224,1872,1855,1856
590234,1876,1858,1855
590244,1880,1860,1865
590254,1888,1863,1872
590264,1898,1869,1877
590274,1903,1870,1886
590284,1906,1873,1893
590294,1908,1877,1898
590304,1912,1877,1904
590314,1910,1881,1904
590324,1909,1881,1904
590334,1905,1883,1907
590344,1902,1883,1904
590354,1899,1883,1901
590364,1893,1877,1893
590374,1887,1875,1888
590384,1883,1873,1885
590394,1874,1872,1877
590404,1872,1870,1872
590414,1868,1868,1867
590424,1861,1863,1863
590434,1858,1860,1855
590444,1855,1861,1853
590454,1855,1859,1849
590464,1854,1854,1842
590474,1854,1853,1840
590484,1853,1856,1840
590494,1853,1854,1840
590504,1854,1853,1840
590514,1851,1852,1840
590524,1858,1853,1840
590534,1859,1854,1840
590544,1861,1855,1843
590554,1866,1856,1848
590564,1863,1855,1853
590574,1869,1856,1855
590584,1870,1858,1852
590594,1870,1856,1856
590604,1871,1857,1858
590614,1870,1859,1856
590624,1872,1858,1859
590634,1867,1859,1861
590644,1869,1857,1857
590654,1865,1858,1861
590664,1861,1857,1856
590674,1862,1855,1861
590684,1865,1855,1857
590694,1860,1856,1856
590704,1862,1854,1856
590714,1859,1853,1854
590724,1861,1851,1851
590734,1860,1855,1850
590744,1860,1854,1849
590754,1859,1853,1853
590764,1863,1853,1849
590774,1859,1853,1847
590784,1862,1854,1847
590794,1858,1851,1845
590804,1861,1855,1845
590814,1863,1856,1845
590824,1859,1854,1843
590834,1860,1851,1847
590844,1859,1853,1850
590854,1862,1855,1849
590864,1859,1852,1849
590874,1862,1856,1849
590884,1861,1856,1847
590894,1859,1856,1850
590904,1863,1853,1849
590914,1863,1856,1851
590924,1862,1855,1851
590934,1863,1856,1856
590944,1869,1856,1857
590954,1872,1857,1857
590964,1875,1859,1865
590974,1883,1862,1871
590984,1890,1867,1877
590994,1899,1868,1883
591004,1901,1873,1891
591014,1904,1873,1895
591024,1905,1876,1901
591034,1909,1881,1904
591044,1909,1879,1904
591054,1905,1879,1904
591064,1904,1881,1904
591074,1900,1878,1904
591084,1895,1873,1894
591094,1894,1877,1892
591104,1886,1872,1886
591114,1880,1872,1881
591124,1877,1870,1875
591134,1872,1863,1868
591144,1870,1865,1861
591154,1861,1861,1857
591164,1860,1857,1851
591174,1856,1856,1848
591184,1853,1856,1843
591194,1854,1854,1840
591204,1851,1855,1842
591214,1854,1854,1840
591224,1853,1856,1841
591234,1853,1853,1842
591244,1856,1854,1847
591254,1858,1854,1849
591264,1862,1855,1847
591274,1862,1857,1854
591284,1867,1857,1855
591294,1869,1856,1857
591304,1866,1861,1858
591314,1870,1863,1859
591324,1870,1856,1859
591334,1871,1856,1866
591344,1871,1859,1865
591354,1869,1856,1859
591364,1870,1855,1859
591374,1865,1855,1856
591384,1867,1853,1855
591394,1859,1856,1851
591404,1862,1852,1853
591414,1859,1854,1851
591424,1861,1851,1847
591434,1856,1855,1847
591444,1858,1853,1844
591454,1857,1852,1846
591464,1858,1851,1843
591474,1859,1854,1842
591484,1855,1850,1843
591494,1859,1853,1844
591504,1858,1855,1845
591514,1858,1854,1845
591524,1861,1855,1845
591534,1861,1853,1842
591544,1860,1851,1847
591554,1860,1856,1847
591564,1859,1853,1845
591574,1861,1854,1846
591584,1863,1854,1850
591594,1859,1853,1847
591604,1859,1854,1848
591614,1859,1850,1845
591624,1863,1851,1847
591634,1861,1853,1847
591644,1862,1857,1847
591654,1861,1855,1853
591664,1870,1855,1856
591674,1873,1858,1856
591684,1881,1862,1862
591694,1887,1862,1872
591704,1890,1866,1874
591714,1901,1872,1886
591724,1904,1874,1893
591734,1905,1877,1901
591744,1910,1880,1904
591754,1910,1879,1908
591764,1908,1883,1910
591774,1909,1885,1909
591784,1905,1881,1909
591794,1901,1881,1907
591804,1897,1878,1903
591814,1890,1876,1898
591824,1884,1874,1891
591834,1881,1871,1885
591844,1882,1869,1878
591854,1871,1867,1873
591864,1867,1862,1868
591874,1865,1858,1866
591884,1863,1857,1857
591894,1860,1858,1854
591904,1859,1856,1849
591914,1856,1854,1847
591924,1856,1854,1846
591934,1856,1853,1847
591944,1858,1854,1847
591954,1862,1851,1845
591964,1858,1853,1847
591974,1862,1851,1850
591984,1866,1853,1849
591994,1866,1856,1851
592004,1863,1855,1854
592014,1867,1856,1855
592024,1868,1855,1858
592034,1869,1855,1856
592044,1868,1858,1856
592054,1867,1856,1857
592064,1866,1858,1854
592074,1866,1856,1855
592084,1863,1856,1857
592094,1864,1856,1854
592104,1862,1858,1852
592114,1861,1855,1849
592124,1861,1854,1847
592134,1858,1856,1847
592144,1858,1854,1846
592154,1856,1856,1845
592164,1856,1854,1845
592174,1857,1851,1841
592184,1856,1855,1842
592194,1856,1851,1843
592204,1857,1853,1842
592214,1855,1849,1845
592224,1856,1847,1845
592234,1857,1852,1841
592244,1856,1847,1844
592254,1856,1851,1842
592264,1856,1849,1843
592274,1858,1853,1846
592284,1857,1850,1845
592294,1858,1855,1849
592304,1857,1853,1849
592314,1861,1851,1847
592324,1861,1851,1846
592334,1861,1855,1850
592344,1859,1853,1849
592354,1861,1855,1853
592364,1859,1854,1852
592374,1862,1854,1855
592384,1862,1856,1851
592394,1868,1853,1854
592404,1870,1854,1857
592414,1872,1857,1862
592424,1877,1857,1871
592434,1886,1863,1872
592444,1893,1867,1878
592454,1898,1872,1888
592464,1904,1872,1894
592474,1906,1875,1902
592484,1910,1877,1905
592494,1910,1879,1910
592504,1906,1877,1910
592514,1907,1879,1910
592524,1902,1883,1909
592534,1902,1879,1908
592544,1894,1875,1903
592554,1888,1876,1901
592564,1881,1872,1894
592574,1877,1872,1889
592584,1873,1869,1883
592594,1867,1866,1878
592604,1870,1861,1872
592614,1862,1861,1869
592624,1865,1858,1862
592634,1857,1856,1859
592644,1858,1854,1855
592654,1853,1851,1852
592664,1857,1851,1847
592674,1856,1847,1845
592684,1854,1853,1842
592694,1856,1852,1843
592704,1856,1853,1845
592714,1856,1850,1845
592724,1861,1853,1847
592734,1862,1854,1847
592744,1861,1854,1850
592754,1862,1855,1854
592764,1868,1858,1853
592774,1867,1857,1855
592784,1869,1856,1856
592794,1867,1860,1856
592804,1871,1858,1855
592814,1869,1859,1857
592824,1869,1860,1855
592834,1865,1857,1854
592844,1863,1856,1855
592854,1862,1858,1853
592864,1859,1855,1850
592874,1859,1856,1851
592884,1859,1854,1847
592894,1858,1854,1850
592904,1857,1854,1845
592914,1857,1851,1846
592924,1855,1850,1845
592934,1858,1852,1844
592944,1856,1849,1843
592954,1856,1852,1846
592964,1857,1851,1843
592974,1859,1850,1843
592984,1859,1852,1842
592994,1862,1851,1843
593004,1858,1854,1842
593014,1861,1853,1841
593024,1862,1853,1842
593034,1861,1851,1846
593044,1861,1856,1847
593054,1862,1851,1848
593064,1862,1855,1850
593074,1867,1853,1850
593084,1861,1854,1846
593094,1865,1851,1849
593104,1862,1853,1847
593114,1862,1853,1845
593124,1867,1851,1850
593134,1863,1856,1849
593144,1863,1854,1850
593154,1859,1851,1845
593164,1860,1852,1843
593174,1859,1851,1847
593184,1859,1851,1840
593194,1859,1853,1841
593204,1860,1854,1845
593214,1867,1856,1846
593224,1869,1856,1850
593234,1872,1857,1857
593244,1882,1863,1865
593254,1887,1863,1873
593264,1895,1870,1879
593274,1904,1872,1890
593284,1907,1874,1903
593294,1911,1876,1909
593304,1915,1879,1914
593314,1915,1876,1917
593324,1915,1879,1918
593334,1910,1882,1920
593344,1910,1881,1916
593354,1905,1880,1915
593364,1904,1879,1911
593374,1897,1877,1907
593384,1889,1872,1901
593394,1886,1876,1894
593404,1880,1872,1886
593414,1878,1870,1882
593424,1872,1867,1874
593434,1872,1862,1872
593444,1868,1862,1863
593454,1866,1859,1856
593464,1862,1858,1854
593474,1861,1856,1850
593484,1863,1855,1844
593494,1860,1855,1841
593504,1858,1853,1839
593514,1862,1855,1837
593524,1859,1855,1839
593534,1865,1854,1840
593544,1863,1857,1840
593554,1862,1857,1841
593564,1869,1856,1842
593574,1866,1858,1847
593584,1871,1859,1847
593594,1869,1859,1849
593604,1871,1857,1849
593614,1867,1860,1850
593624,1865,1859,1854
593634,1869,1861,1854
593644,1868,1858,1853
593654,1869,1859,1853
593664,1865,1859,1855
593674,1861,1854,1850
593684,1862,1856,1848
593694,1860,1856,1847
593704,1858,1855,1850
593714,1857,1852,1846
593724,1857,1854,1844
593734,1855,1853,1847
593744,1853,1853,1845
593754,1855,1853,1849
593764,1855,1850,1845
593774,1854,1850,1843
593784,1853,1853,1841
593794,1857,1849,1844
593804,1857,1847,1843
593814,1862,1851,1846
593824,1857,1849,1843
593834,1858,1846,1850
593844,1862,1845,1847
593854,1862,1847,1846
593864,1859,1851,1848
593874,1863,1853,1850
593884,1862,1853,1851
593894,1862,1853,1855
593904,1866,1853,1853
593914,1863,1853,1854
593924,1862,1855,1853
593934,1865,1854,1850
593944,1865,1855,1855
593954,1867,1854,1854
593964,1868,1854,1855
593974,1865,1858,1855
593984,1865,1856,1855
593994,1861,1856,1854
594004,1863,1856,1851
594014,1862,1857,1854
594024,1856,1855,1850
594034,1862,1856,1849
594044,1859,1856,1847
594054,1858,1854,1849
594064,1863,1855,1852
594074,1867,1854,1849
594084,1872,1857,1858
594094,1877,1858,1861
594104,1886,1859,1867
594114,1890,1862,1873
594124,1901,1867,1878
594134,1904,1870,1890
594144,1907,1871,1895
594154,1909,1874,1903
594164,1910,1873,1905
594174,1913,1876,1906
594184,1910,1877,1909
594194,1904,1879,1905
594204,1904,1872,1904
594214,1897,1875,1903
594224,1892,1872,1899
594234,1889,1872,1891
594244,1879,1869,1887
594254,1879,1870,1872
594264,1872,1859,1875
594274,1869,1861,1872
594284,1865,1858,1868
594294,1863,1857,1866
594304,1859,1857,1866
594314,1858,1856,1853
594324,1857,1854,1852
594334,1859,1857,1846
594344,1856,1850,1844
594354,1857,1851,1843
594364,1859,1851,1844
594374,1861,1853,1843
594384,1861,1851,1853
594394,1866,1854,1845
594404,1867,1856,1846
594414,1870,1855,1847
594424,1871,1853,1851
594434,1872,1855,1854
594444,1871,1858,1847
594454,1869,1855,1851
594464,1870,1856,1853
594474,1870,1857,1848
594484,1867,1856,1845
594494,1870,1856,1851
594504,1866,1856,1851
594514,1866,1856,1849
594524,1861,1856,1846
594534,1860,1855,1849
594544,1863,1856,1847
594554,1861,1854,1845
594564,1859,1854,1846
594574,1860,1855,1848
594584,1861,1853,1846
594594,1859,1855,1846
594604,1857,1854,1846
594614,1856,1853,1850
594624,1858,1853,1850
594634,1859,1854,1849
594644,1857,1853,1851
594654,1860,1851,1851
594664,1861,1853,1853
594674,1862,1856,1852
594684,1865,1855,1851
594694,1862,1855,1855
594704,1862,1851,1854
594714,1866,1854,1853
594724,1863,1857,1847
594734,1862,1855,1850
594744,1865,1857,1847
594754,1865,1853,1851
594764,1861,1852,1851
594774,1859,1856,1850
594784,1861,1857,1850
594794,1862,1858,1846
594804,1859,1858,1847
594814,1860,1857,1852
594824,1868,1856,1850
594834,1867,1859,1854
594844,1872,1858,1857
594854,1874,1858,1861
594864,1882,1860,1870
594874,1891,1866,1875
594884,1899,1865,1883
594894,1903,1869,1888
594904,1904,1869,1894
594914,1905,1869,1899
594924,1907,1872,1902
594934,1909,1872,1903
594944,1904,1872,1903
594954,1904,1873,1900
594964,1901,1872,1894
594974,1895,1872,1891
594984,1890,1872,1885
594994,1883,1871,1884
595004,1878,1871,1873
595014,1874,1869,1870
595024,1871,1866,1867
595034,1862,1862,1863
595044,1862,1859,1857
595054,1859,1859,1851
595064,1857,1857,1849
595074,1855,1855,1849
595084,1853,1856,1845
595094,1853,1855,1843
595104,1850,1854,1842
595114,1855,1851,1842
595124,1855,1853,1843
595134,1858,1853,1845
595144,1861,1854,1851
595154,1861,1855,1853
595164,1868,1855,1855
595174,1866,1856,1856
595184,1869,1858,1857
595194,1869,1856,1860
595204,1869,1857,1858
595214,1869,1855,1862
595224,1870,1857,1861
595234,1866,1856,1857
595244,1865,1856,1858
595254,1865,1856,1856
595264,1861,1856,1855
595274,1862,1856,1851
595284,1858,1856,1847
595294,1857,1855,1847
595304,1858,1854,1842
595314,1859,1853,1845
595324,1855,1854,1840
595334,1856,1851,1841
595344,1856,1851,1841
595354,1853,1851,1839
595364,1854,1850,1840
595374,1856,1851,1842
595384,1855,1846,1841
595394,1857,1851,1841
595404,1854,1851,1842
595414,1856,1847,1842
595424,1857,1851,1841
595434,1859,1849,1841
595444,1856,1852,1843
595454,1857,1851,1841
595464,1855,1853,1845
595474,1859,1852,1844
595484,1861,1851,1843
595494,1858,1854,1849
595504,1861,1853,1849
595514,1861,1853,1845
595524,1863,1854,1850
595534,1860,1856,1847
595544,1859,1854,1846
595554,1861,1854,1849
595564,1863,1855,1851
595574,1860,1855,1853
595584,1861,1854,1853
595594,1858,1854,1854
595604,1859,1851,1851
595614,1858,1855,1855
595624,1862,1854,1857
595634,1868,1854,1861
595644,1872,1857,1863
595654,1877,1860,1872
595664,1886,1862,1872
595674,1894,1862,1883
595684,1900,1863,1887
595694,1904,1869,1897
595704,1907,1867,1904
595714,1908,1869,1904
595724,1906,1869,1906
595734,1907,1872,1909
595744,1905,1872,1906
595754,1904,1872,1904
595764,1897,1872,1902
595774,1891,1871,1899
595784,1890,1870,1891
595794,1882,1869,1888
595804,1876,1867,1881
595814,1872,1867,1877
595824,1868,1867,1872
595834,1866,1865,1871
595844,1862,1861,1863
595854,1859,1859,1859
595864,1856,1859,1855
595874,1855,1856,1856
595884,1853,1859,1853
595894,1855,1856,1850
595904,1857,1854,1850
595914,1856,1855,1852
595924,1857,1855,1849
595934,1860,1855,1854
595944,1861,1852,1854
595954,1862,1855,1853
595964,1865,1853,1857
595974,1866,1857,1857
595984,1870,1855,1857
595994,1869,1858,1861
596004,1869,1857,1858
596014,1867,1857,1862
596024,1869,1857,1863
596034,1866,1858,1860
596044,1867,1859,1861
596054,1862,1858,1857
596064,1864,1857,1857
596074,1862,1855,1855
596084,1858,1856,1853
596094,1856,1855,1853
596104,1857,1855,1850
596114,1857,1856,1847
596124,1856,1853,1847
596134,1853,1853,1845
596144,1856,1852,1846
596154,1851,1851,1843
596164,1855,1853,1842
596174,1855,1851,1840
596184,1856,1855,1840
596194,1859,1851,1840
596204,1856,1852,1841
596214,1856,1854,1843
596224,1858,1852,1842
596234,1859,1853,1842
596244,1858,1853,1841
596254,1859,1855,1845
596264,1863,1855,1846
596274,1862,1853,1850
596284,1862,1856,1846
596294,1859,1856,1846
596304,1859,1853,1846
596314,1862,1856,1849
596324,1863,1853,1850
596334,1859,1855,1847
596344,1859,1855,1852
596354,1857,1854,1851
596364,1858,1853,1847
596374,1860,1856,1848
596384,1861,1856,1849
596394,1859,1854,1847
596404,1859,1851,1847
596414,1859,1853,1850
596424,1862,1853,1852
596434,1869,1854,1858
596444,1872,1855,1860
596454,1879,1856,1867
596464,1883,1857,1874
596474,1894,1859,1878
596484,1902,1861,1887
596494,1904,1867,1894
596504,1909,1865,1903
596514,1911,1869,1904
596524,1913,1872,1908
596534,1909,1871,1906
596544,1913,1872,1911
596554,1905,1872,1905
596564,1900,1869,1904
596574,1897,1871,1904
596584,1889,1871,1894
596594,1884,1871,1894
596604,1878,1872,1883
596614,1875,1867,1879
596624,1872,1865,1872
596634,1867,1867,1869
596644,1866,1863,1863
596654,1859,1860,1858
596664,1855,1858,1856
596674,1855,1858,1853
596684,1855,1859,1850
596694,1855,1854,1848
596704,1855,1852,1845
596714,1856,1855,1845
596724,1856,1857,1843
596734,1854,1855,1843
596744,1858,1855,1842
596754,1860,1856,1842
596764,1860,1855,1847
596774,1863,1857,1840
596784,1866,1855,1849
596794,1869,1856,1852
596804,1867,1858,1847
596814,1867,1859,1851
596824,1869,1857,1853
596834,1869,1856,1851
596844,1870,1858,1851
596854,1870,1857,1850
596864,1863,1857,1854
596874,1863,1862,1849
596884,1862,1857,1850
596894,1858,1857,1847
596904,1858,1858,1850
596914,1861,1856,1847
596924,1857,1857,1845
596934,1857,1857,1846
596944,1859,1856,1849
596954,1856,1857,1846
596964,1858,1858,1847
596974,1859,1856,1850
596984,1856,1855,1849
596994,1858,1856,1850
597004,1862,1857,1850
597014,1862,1855,1851
597024,1863,1854,1854
597034,1862,1855,1855
597044,1861,1856,1856
597054,1863,1856,1853
597064,1861,1857,1855
597074,1861,1857,1855
597084,1861,1854,1855
597094,1861,1856,1855
597104,1865,1854,1856
597114,1862,1856,1855
597124,1861,1856,1856
597134,1862,1853,1857
597144,1861,1855,1852
597154,1858,1851,1854
597164,1858,1853,1851
597174,1861,1854,1851
597184,1857,1848,1851
597194,1857,1853,1851
597204,1858,1851,1851
597214,1858,1853,1846
597224,1858,1849,1845
597234,1859,1847,1845
597244,1860,1853,1846
597254,1862,1852,1847
597264,1867,1853,1853
597274,1872,1856,1856
597284,1878,1855,1859
597294,1887,1859,1866
597304,1893,1865,1873
597314,1899,1866,1878
597324,1904,1865,1887
597334,1909,1869,1894
597344,1909,1870,1898
597354,1911,1871,1901
597364,1908,1872,1903
597374,1907,1872,1904
597384,1904,1871,1902
597394,1901,1872,1898
597404,1891,1872,1893
597414,1886,1871,1888
597424,1883,1872,1886
597434,1873,1870,1879
597444,1872,1867,1872
597454,1869,1866,1871
597464,1863,1866,1865
597474,1860,1862,1862
597484,1857,1860,1855
597494,1855,1858,1853
597504,1853,1857,1851
597514,1855,1856,1851
597524,1851,1856,1850
597534,1851,1856,1849
597544,1854,1856,1847
597554,1856,1856,1846
597564,1859,1856,1849
