timestamp_ms_device,ppg_finger1,ppg_finger2,ppg_finger3
204756,1861,1852,1847
204765,1866,1855,1851
204775,1859,1856,1857
204785,1862,1855,1855
204795,1865,1851,1854
204805,1866,1853,1855
204815,1867,1853,1853
204825,1869,1851,1853
204835,1866,1856,1853
204845,1863,1854,1854
204855,1861,1853,1853
204865,1861,1853,1849
204875,1857,1850,1853
204885,1859,1853,1849
204895,1861,1855,1851
204905,1859,1849,1850
204915,1857,1851,1852
204925,1859,1854,1850
204935,1860,1850,1846
204945,1857,1851,1844
204955,1858,1855,1846
204965,1856,1851,1843
204975,1856,1852,1843
204985,1856,1852,1850
204995,1856,1849,1843
205005,1857,1851,1845
205015,1856,1850,1843
205025,1857,1852,1842
205035,1857,1850,1841
205045,1858,1847,1843
205055,1859,1851,1846
205065,1857,1847,1840
205075,1855,1854,1843
205085,1857,1851,1845
205095,1857,1850,1847
205105,1856,1853,1844
205115,1857,1849,1847
205125,1859,1851,1843
205135,1856,1850,1849
205145,1863,1853,1845
205155,1859,1850,1845
205165,1857,1851,1849
205175,1858,1845,1845
205185,1857,1856,1849
205195,1858,1853,1846
205205,1858,1851,1852
205215,1859,1850,1849
205225,1859,1851,1845
205235,1858,1850,1850
205245,1856,1849,1846
205255,1862,1850,1851
205265,1858,1849,1846
205275,1856,1847,1851
205285,1861,1850,1846
205295,1862,1850,1847
205305,1871,1849,1851
205315,1869,1854,1847
205325,1871,1854,1853
205335,1872,1859,1858
205345,1879,1856,1859
205355,1879,1857,1869
205365,1883,1862,1871
205375,1888,1866,1872
205385,1890,1865,1872
205395,1888,1867,1871
205405,1889,1862,1871
205415,1887,1865,1870
205425,1885,1870,1870
205435,1883,1863,1870
205445,1877,1863,1867
205455,1875,1858,1871
205465,1873,1866,1863
205475,1873,1861,1863
205485,1872,1857,1857
205495,1869,1861,1858
205505,1869,1856,1861
205515,1869,1859,1853
205525,1864,1858,1856
205535,1863,1857,1856
205545,1859,1856,1848
205555,1862,1856,1854
205565,1858,1856,1853
205575,1862,1856,1853
205585,1866,1847,1854
205595,1858,1854,1855
205605,1862,1855,1854
205615,1867,1852,1856
205625,1866,1851,1855
205635,1866,1855,1856
205645,1867,1854,1850
205655,1868,1859,1855
205665,1869,1856,1855
205675,1869,1856,1855
205685,1865,1854,1855
205695,1867,1855,1855
205705,1865,1858,1856
205715,1866,1858,1855
205725,1866,1859,1856
205735,1859,1856,1853
205745,1867,1858,1856
205755,1862,1854,1855
205765,1859,1855,1854
205775,1859,1856,1851
205785,1866,1854,1854
205795,1859,1855,1851
205805,1861,1855,1847
205815,1861,1856,1847
205825,1859,1867,1856
205835,1863,1857,1850
205845,1859,1851,1849
205855,1863,1856,1855
205865,1858,1854,1850
205875,1862,1852,1846
205885,1865,1854,1850
205895,1862,1855,1851
205905,1861,1875,1851
205915,1860,1856,1853
205925,1860,1856,1835
205935,1862,1856,1847
205945,1859,1851,1856
205955,1861,1858,1851
205965,1859,1852,1852
205975,1865,1857,1849
205985,1867,1855,1850
205995,1859,1856,1854
206005,1866,1853,1851
206015,1861,1855,1847
206025,1867,1856,1849
206035,1863,1858,1852
206045,1861,1858,1850
206055,1862,1850,1851
206065,1859,1854,1854
206075,1861,1856,1849
206085,1862,1856,1848
206095,1858,1854,1850
206105,1863,1858,1847
206115,1867,1858,1849
206125,1870,1859,1852
206135,1872,1856,1855
206145,1872,1863,1859
206155,1875,1856,1861
206165,1881,1865,1865
206175,1885,1861,1862
206185,1887,1866,1870
206195,1888,1871,1872
206205,1887,1862,1872
206215,1887,1867,1872
206225,1888,1865,1872
206235,1888,1871,1872
206245,1879,1869,1870
206255,1876,1866,1871
206265,1875,1867,1871
206275,1872,1861,1872
206285,1868,1858,1870
206295,1871,1861,1861
206305,1867,1859,1861
206315,1862,1855,1859
206325,1867,1856,1861
206335,1865,1857,1860
206345,1859,1854,1856
206355,1863,1857,1856
206365,1859,1857,1855
206375,1867,1851,1853
206385,1866,1849,1855
206395,1857,1857,1855
206405,1857,1853,1856
206415,1859,1853,1856
206425,1861,1851,1855
206435,1861,1852,1855
206445,1862,1851,1856
206455,1863,1850,1851
206465,1861,1852,1856
206475,1861,1856,1854
206485,1867,1854,1855
206495,1865,1856,1856
206505,1859,1859,1856
206515,1862,1854,1856
206525,1866,1856,1856
206535,1863,1855,1853
206545,1862,1854,1855
206555,1863,1857,1853
206565,1860,1854,1855
206575,1865,1856,1852
206585,1860,1855,1850
206595,1859,1853,1856
206605,1861,1851,1851
206615,1862,1850,1850
206625,1862,1851,1854
206635,1856,1853,1854
206645,1859,1854,1847
206655,1865,1855,1851
206665,1863,1856,1853
206675,1858,1853,1849
206685,1859,1851,1851
206695,1857,1850,1844
206705,1863,1854,1846
206715,1859,1847,1851
206725,1857,1853,1853
206735,1858,1853,1853
206745,1856,1851,1851
206755,1857,1846,1846
206765,1860,1850,1846
206775,1858,1854,1855
206785,1860,1854,1853
206795,1861,1854,1854
206805,1861,1854,1849
206815,1861,1853,1851
206825,1863,1849,1851
206835,1862,1851,1855
206845,1860,1852,1853
206855,1858,1851,1849
206865,1861,1851,1847
206875,1860,1853,1853
206885,1859,1855,1851
206895,1863,1855,1853
206905,1861,1853,1853
206915,1858,1854,1850
206925,1858,1851,1846
206935,1861,1855,1850
206945,1868,1853,1857
206955,1857,1854,1851
206965,1863,1853,1852
206975,1863,1855,1851
206985,1861,1855,1847
206995,1866,1856,1847
207005,1865,1850,1852
207015,1863,1854,1852
207025,1867,1858,1855
207035,1872,1856,1856
207045,1875,1858,1859
207055,1882,1858,1867
207065,1882,1862,1866
207075,1887,1865,1871
207085,1888,1867,1872
207095,1894,1869,1874
207105,1893,1872,1877
207115,1890,1869,1878
207125,1889,1869,1877
207135,1879,1863,1878
207145,1886,1866,1878
207155,1877,1870,1875
207165,1877,1870,1874
207175,1873,1865,1872
207185,1874,1859,1872
207195,1870,1866,1870
207205,1870,1861,1866
207215,1871,1858,1863
207225,1867,1858,1865
207235,1863,1859,1865
207245,1869,1857,1863
207255,1865,1860,1859
207265,1868,1857,1863
207275,1866,1858,1856
207285,1863,1856,1862
207295,1867,1859,1857
207305,1861,1857,1861
207315,1865,1859,1860
207325,1867,1857,1860
207335,1862,1857,1857
207345,1868,1856,1861
207355,1869,1856,1860
207365,1866,1861,1862
207375,1867,1856,1861
207385,1868,1858,1859
207395,1867,1857,1863
207405,1866,1863,1862
207415,1867,1856,1862
207425,1867,1861,1867
207435,1870,1855,1862
207445,1865,1858,1861
207455,1866,1853,1858
207465,1867,1861,1857
207475,1863,1856,1856
207485,1863,1859,1857
207495,1861,1855,1855
207505,1866,1859,1854
207515,1863,1857,1854
207525,1862,1857,1855
207535,1863,1856,1854
207545,1866,1855,1852
207555,1863,1852,1852
207565,1866,1856,1854
207575,1865,1857,1853
207585,1862,1856,1855
207595,1863,1858,1856
207605,1867,1854,1850
207615,1863,1853,1854
207625,1866,1855,1855
207635,1865,1856,1853
207645,1862,1856,1854
207655,1863,1856,1853
207665,1860,1856,1854
207675,1863,1855,1849
207685,1863,1855,1849
207695,1863,1857,1854
207705,1862,1851,1852
207715,1862,1861,1855
207725,1861,1856,1851
207735,1863,1859,1851
207745,1862,1853,1857
207755,1863,1859,1856
207765,1862,1850,1851
207775,1867,1855,1851
207785,1863,1857,1847
207795,1862,1856,1851
207805,1863,1852,1852
207815,1861,1855,1854
207825,1865,1854,1852
207835,1863,1855,1851
207845,1861,1855,1848
207855,1865,1852,1851
207865,1861,1856,1849
207875,1860,1851,1851
207885,1862,1851,1844
207895,1861,1857,1851
207905,1868,1856,1850
207915,1866,1857,1856
207925,1865,1853,1854
207935,1872,1859,1858
207945,1872,1864,1861
207955,1879,1863,1867
207965,1885,1865,1867
207975,1890,1865,1872
207985,1894,1871,1872
207995,1895,1872,1875
208005,1899,1872,1884
208015,1901,1877,1885
208025,1897,1876,1885
208035,1899,1876,1882
208045,1901,1877,1884
208055,1893,1873,1879
208065,1886,1870,1874
208075,1887,1872,1877
208085,1882,1871,1873
208095,1879,1868,1872
208105,1875,1866,1872
208115,1873,1865,1872
208125,1874,1865,1869
208135,1872,1865,1866
208145,1867,1866,1863
208155,1865,1862,1861
208165,1867,1863,1863
208175,1863,1859,1862
208185,1859,1859,1858
208195,1867,1859,1859
208205,1863,1857,1856
208215,1861,1856,1856
208225,1863,1857,1856
208235,1862,1858,1857
208245,1859,1857,1859
208255,1858,1856,1856
208265,1863,1856,1856
208275,1866,1859,1858
208285,1862,1853,1857
208295,1862,1855,1855
208305,1863,1855,1856
208315,1869,1856,1856
208325,1861,1855,1856
208335,1867,1856,1857
208345,1863,1853,1853
208355,1863,1851,1854
208365,1859,1853,1855
208375,1858,1854,1849
208385,1862,1853,1851
208395,1863,1852,1850
208405,1855,1854,1851
208415,1861,1846,1849
208425,1856,1855,1852
208435,1860,1854,1849
208445,1860,1847,1850
208455,1857,1851,1847
208465,1854,1853,1845
208475,1857,1850,1850
208485,1861,1853,1845
208495,1857,1853,1843
208505,1855,1855,1849
208515,1857,1850,1849
208525,1861,1852,1846
208535,1859,1854,1851
208545,1863,1851,1847
208555,1859,1851,1847
208565,1863,1840,1845
208575,1860,1850,1849
208585,1859,1853,1847
208595,1863,1849,1847
208605,1863,1849,1847
208615,1861,1851,1850
208625,1861,1851,1846
208635,1861,1853,1851
208645,1859,1854,1847
208655,1863,1850,1850
208665,1865,1853,1843
208675,1863,1847,1851
208685,1865,1849,1854
208695,1863,1851,1850
208705,1861,1850,1847
208715,1861,1854,1849
208725,1859,1850,1845
208735,1861,1854,1850
208745,1862,1853,1845
208755,1857,1846,1849
208765,1863,1854,1847
208775,1861,1850,1849
208785,1858,1849,1849
208795,1858,1850,1853
208805,1859,1851,1851
208815,1861,1855,1847
208825,1859,1856,1849
208835,1866,1854,1844
208845,1861,1855,1852
208855,1862,1858,1851
208865,1871,1855,1853
208875,1871,1856,1856
208885,1875,1858,1861
208895,1879,1859,1872
208905,1884,1861,1867
208915,1888,1862,1869
208925,1886,1869,1868
208935,1894,1860,1875
208945,1894,1869,1879
208955,1894,1871,1873
208965,1895,1870,1879
208975,1889,1867,1877
208985,1890,1871,1874
208995,1885,1863,1872
209005,1878,1869,1872
209015,1877,1866,1867
209025,1872,1864,1867
209035,1872,1865,1865
209045,1870,1861,1863
209055,1870,1859,1865
209065,1865,1865,1863
209075,1867,1852,1861
209085,1862,1854,1858
209095,1863,1856,1855
209105,1858,1856,1855
209115,1857,1858,1856
209125,1857,1858,1857
209135,1859,1852,1854
209145,1863,1855,1857
209155,1862,1856,1853
209165,1861,1857,1856
209175,1863,1858,1857
209185,1865,1857,1856
209195,1870,1856,1855
209205,1869,1854,1856
209215,1871,1854,1858
209225,1867,1858,1855
209235,1869,1856,1855
209245,1872,1856,1856
209255,1867,1857,1856
209265,1868,1859,1855
209275,1866,1856,1852
209285,1867,1854,1856
209295,1863,1854,1854
209305,1865,1856,1851
209315,1862,1855,1853
209325,1865,1851,1856
209335,1863,1851,1856
209345,1860,1854,1854
209355,1861,1856,1856
209365,1867,1850,1851
209375,1857,1856,1849
209385,1859,1854,1853
209395,1861,1854,1851
209405,1859,1855,1851
209415,1862,1854,1851
209425,1861,1856,1853
209435,1862,1855,1852
209445,1863,1850,1843
209455,1861,1854,1851
209465,1861,1856,1854
209475,1847,1854,1853
209485,1859,1856,1853
209495,1865,1849,1851
209505,1859,1855,1849
209515,1862,1857,1847
209525,1857,1855,1853
209535,1866,1847,1850
209545,1863,1855,1850
209555,1863,1855,1855
209565,1867,1856,1851
209575,1862,1855,1851
209585,1863,1857,1850
209595,1859,1855,1851
209605,1856,1851,1851
209615,1864,1851,1849
209625,1863,1854,1847
209635,1861,1850,1851
209645,1861,1851,1850
209655,1863,1850,1850
209665,1863,1851,1851
209675,1858,1853,1853
209685,1863,1856,1846
209695,1853,1856,1849
209705,1862,1850,1846
209715,1859,1854,1846
209725,1856,1846,1847
209735,1867,1851,1847
209745,1862,1854,1853
209755,1868,1854,1854
209765,1869,1854,1854
209775,1872,1856,1857
209785,1879,1861,1862
209795,1883,1857,1866
209805,1891,1865,1871
209815,1888,1868,1872
209825,1893,1869,1872
209835,1898,1871,1878
209845,1894,1871,1876
209855,1892,1872,1879
209865,1888,1870,1877
209875,1881,1869,1878
209885,1886,1868,1873
209895,1883,1869,1877
209905,1882,1862,1874
209915,1877,1867,1872
209925,1874,1870,1872
209935,1872,1861,1867
209945,1869,1862,1866
209955,1869,1862,1866
209965,1869,1857,1862
209975,1863,1861,1857
209985,1863,1861,1858
209995,1867,1856,1859
210005,1861,1856,1857
210015,1862,1854,1857
210025,1860,1856,1855
210035,1862,1856,1856
210045,1865,1853,1855
210055,1859,1856,1856
210065,1869,1858,1856
210075,1865,1855,1854
210085,1866,1858,1856
210095,1867,1856,1856
210105,1866,1854,1855
210115,1869,1854,1856
210125,1867,1851,1857
210135,1867,1857,1856
210145,1866,1857,1858
210155,1869,1854,1853
210165,1867,1856,1857
210175,1861,1854,1857
210185,1862,1858,1855
210195,1865,1850,1856
210205,1859,1854,1857
210215,1859,1857,1855
210225,1862,1852,1849
210235,1856,1852,1854
210245,1861,1856,1854
210255,1859,1847,1853
210265,1856,1853,1850
210275,1854,1854,1846
210285,1857,1855,1851
210295,1858,1854,1850
210305,1861,1851,1850
210315,1858,1845,1851
210325,1859,1853,1850
210335,1861,1850,1853
210345,1857,1850,1851
210355,1861,1855,1851
210365,1859,1853,1851
210375,1862,1853,1843
210385,1863,1850,1849
210395,1859,1850,1847
210405,1859,1854,1851
210415,1859,1854,1850
210425,1863,1853,1850
210435,1861,1856,1849
210445,1862,1854,1849
210455,1857,1854,1853
210465,1860,1850,1850
210475,1859,1847,1853
210485,1859,1847,1853
210495,1857,1851,1852
210505,1859,1850,1850
210515,1860,1850,1851
210525,1861,1856,1846
210535,1860,1847,1849
210545,1858,1850,1847
210555,1858,1851,1850
210565,1860,1851,1850
210575,1854,1851,1853
210585,1857,1853,1844
210595,1862,1851,1847
210605,1856,1846,1849
210615,1863,1851,1851
210625,1866,1856,1850
210635,1861,1854,1845
210645,1863,1856,1850
210655,1856,1854,1851
210665,1858,1851,1850
210675,1863,1852,1853
210685,1869,1852,1853
210695,1870,1853,1855
210705,1871,1854,1856
210715,1871,1857,1860
210725,1879,1858,1865
210735,1883,1861,1867
210745,1889,1865,1867
210755,1891,1867,1875
210765,1895,1867,1875
210775,1895,1871,1878
210785,1897,1872,1878
210795,1891,1870,1884
210805,1891,1872,1878
210815,1890,1872,1872
210825,1881,1870,1872
210835,1879,1867,1873
210845,1877,1867,1872
210855,1872,1863,1872
210865,1871,1861,1865
210875,1865,1863,1866
210885,1862,1862,1869
210895,1867,1856,1867
210905,1861,1858,1861
210915,1861,1857,1865
210925,1860,1857,1859
210935,1856,1857,1859
210945,1858,1855,1858
210955,1862,1858,1855
210965,1857,1857,1856
210975,1857,1854,1854
210985,1856,1850,1856
210995,1858,1855,1856
211005,1861,1854,1857
211015,1862,1853,1855
211025,1861,1856,1857
211035,1866,1852,1858
211045,1863,1854,1856
211055,1863,1855,1859
211065,1867,1854,1857
211075,1870,1855,1858
211085,1869,1856,1855
211095,1866,1856,1858
211105,1869,1856,1858
211115,1867,1852,1856
211125,1862,1855,1857
211135,1866,1856,1856
211145,1866,1849,1856
211155,1865,1853,1854
211165,1858,1854,1851
211175,1861,1854,1853
211185,1857,1856,1853
211195,1862,1851,1847
211205,1862,1853,1851
211215,1861,1851,1851
211225,1858,1850,1849
211235,1859,1850,1847
211245,1859,1853,1846
211255,1859,1851,1850
211265,1857,1851,1850
211275,1858,1852,1850
211285,1859,1850,1848
211295,1861,1851,1850
211305,1861,1853,1849
211315,1858,1853,1853
211325,1860,1853,1847
211335,1861,1855,1846
211345,1862,1849,1850
211355,1861,1851,1850
211365,1861,1855,1853
211375,1858,1847,1850
211385,1858,1854,1849
211395,1857,1853,1849
211405,1858,1851,1850
211415,1863,1853,1850
211425,1862,1854,1847
211435,1857,1851,1850
211445,1862,1854,1851
211455,1858,1850,1852
211465,1861,1846,1851
211475,1861,1855,1847
211485,1859,1852,1846
211495,1863,1855,1847
211505,1859,1850,1853
211515,1859,1850,1851
211525,1861,1852,1851
211535,1862,1854,1853
211545,1859,1853,1849
211555,1857,1854,1855
211565,1863,1854,1845
211575,1866,1853,1851
211585,1864,1853,1849
211595,1861,1851,1850
211605,1865,1853,1847
211615,1858,1843,1850
211625,1865,1855,1851
211635,1860,1856,1855
211645,1866,1856,1855
211655,1872,1857,1859
211665,1874,1863,1859
211675,1873,1859,1861
211685,1886,1862,1869
211695,1887,1866,1872
211705,1891,1867,1873
211715,1891,1867,1878
211725,1889,1872,1879
211735,1890,1872,1882
211745,1888,1872,1879
211755,1889,1872,1885
211765,1885,1862,1877
211775,1882,1867,1878
211785,1873,1866,1874
211795,1872,1866,1873
211805,1870,1861,1869
211815,1868,1856,1865
211825,1866,1859,1861
211835,1865,1858,1861
211845,1862,1854,1861
211855,1861,1854,1863
211865,1863,1856,1854
211875,1858,1858,1861
211885,1857,1855,1855
211895,1859,1854,1857
211905,1858,1855,1854
211915,1859,1851,1857
211925,1863,1858,1855
211935,1864,1856,1851
211945,1861,1853,1856
211955,1865,1855,1857
211965,1865,1857,1856
211975,1861,1856,1855
211985,1866,1857,1857
211995,1866,1857,1858
212005,1866,1856,1859
212015,1866,1854,1860
212025,1869,1858,1858
212035,1867,1858,1859
212045,1870,1853,1859
212055,1867,1861,1858
212065,1858,1854,1856
212075,1858,1856,1856
212085,1865,1854,1856
212095,1861,1854,1854
212105,1859,1854,1854
212115,1860,1856,1854
212125,1863,1847,1855
212135,1861,1851,1851
212145,1858,1854,1851
212155,1858,1851,1851
212165,1858,1858,1849
212175,1863,1854,1847
212185,1862,1856,1840
212195,1859,1854,1850
212205,1859,1853,1851
212215,1861,1849,1849
212225,1866,1856,1853
212235,1861,1852,1849
212245,1865,1850,1851
212255,1862,1845,1847
212265,1863,1853,1854
212275,1862,1852,1849
212285,1863,1853,1850
212295,1857,1847,1849
212305,1863,1854,1850
212315,1858,1854,1849
212325,1859,1856,1847
212335,1859,1852,1851
212345,1862,1851,1850
212355,1854,1847,1847
212365,1859,1856,1850
212375,1859,1854,1847
212385,1857,1859,1843
212395,1859,1857,1847
212405,1860,1854,1846
212415,1861,1854,1846
212425,1856,1851,1847
212435,1861,1851,1849
212445,1873,1853,1849
212455,1863,1855,1846
212465,1858,1850,1850
212475,1861,1855,1850
212485,1865,1855,1851
212495,1861,1851,1851
212505,1867,1853,1849
212515,1867,1855,1852
212525,1872,1862,1849
212535,1873,1858,1861
212545,1879,1855,1866
212555,1882,1867,1869
212565,1899,1863,1871
212575,1891,1870,1872
212585,1895,1869,1874
212595,1894,1866,1877
212605,1890,1872,1885
212615,1901,1871,1882
212625,1898,1870,1877
212635,1887,1865,1875
212645,1887,1870,1877
212655,1878,1866,1875
212665,1875,1867,1874
212675,1877,1862,1875
212685,1872,1861,1872
212695,1872,1860,1870
212705,1871,1861,1865
212715,1867,1861,1863
212725,1867,1859,1863
212735,1859,1856,1857
212745,1865,1855,1858
212755,1862,1856,1861
212765,1860,1854,1856
212775,1867,1858,1855
212785,1863,1856,1853
212795,1859,1856,1855
212805,1862,1853,1854
212815,1865,1854,1852
212825,1862,1857,1851
212835,1866,1853,1855
212845,1867,1857,1854
212855,1863,1856,1858
212865,1865,1855,1859
212875,1863,1855,1858
212885,1872,1856,1857
212895,1872,1855,1860
212905,1872,1856,1862
212915,1872,1857,1859
212925,1871,1858,1856
212935,1866,1856,1858
212945,1869,1859,1857
212955,1866,1854,1856
212965,1865,1856,1857
212975,1863,1856,1853
212985,1869,1857,1855
212995,1859,1855,1853
213005,1863,1856,1854
213015,1862,1853,1850
213025,1861,1855,1850
213035,1861,1854,1856
213045,1862,1851,1853
213055,1860,1855,1854
213065,1866,1855,1854
213075,1861,1856,1853
213085,1859,1856,1850
213095,1861,1847,1851
213105,1858,1854,1850
213115,1863,1853,1853
213125,1863,1857,1851
213135,1861,1856,1856
213145,1863,1855,1853
213155,1861,1856,1846
213165,1859,1854,1847
213175,1861,1850,1851
213185,1861,1856,1851
213195,1862,1858,1855
213205,1866,1856,1853
213215,1863,1847,1850
213225,1861,1855,1853
213235,1857,1855,1853
213245,1862,1856,1852
213255,1863,1853,1851
213265,1862,1851,1850
213275,1866,1851,1853
213285,1865,1854,1847
213295,1860,1850,1851
213305,1860,1855,1851
213315,1859,1854,1849
213325,1865,1853,1852
213335,1865,1854,1853
213345,1863,1856,1851
213355,1861,1853,1855
213365,1867,1855,1853
213375,1863,1850,1851
213385,1860,1853,1849
213395,1865,1852,1853
213405,1869,1854,1852
213415,1869,1851,1857
213425,1872,1856,1853
213435,1879,1855,1857
213445,1884,1858,1863
213455,1888,1867,1864
213465,1893,1867,1872
213475,1894,1869,1872
213485,1901,1872,1877
213495,1904,1873,1882
213505,1904,1872,1888
213515,1901,1873,1889
213525,1903,1873,1887
213535,1903,1873,1883
213545,1895,1872,1887
213555,1896,1872,1882
213565,1891,1872,1879
213575,1888,1872,1882
213585,1882,1869,1873
213595,1875,1869,1872
213605,1876,1868,1872
213615,1874,1866,1870
213625,1872,1863,1871
213635,1872,1857,1867
213645,1872,1860,1866
213655,1870,1860,1867
213665,1871,1860,1867
213675,1866,1858,1858
213685,1863,1857,1856
213695,1862,1856,1857
213705,1863,1857,1859
213715,1863,1859,1857
213725,1867,1856,1859
213735,1865,1856,1858
213745,1866,1856,1856
213755,1872,1863,1855
213765,1869,1856,1857
213775,1871,1855,1856
213785,1869,1856,1857
213795,1869,1856,1859
213805,1872,1857,1858
213815,1872,1857,1859
213825,1871,1859,1860
213835,1872,1858,1857
213845,1870,1857,1856
213855,1867,1855,1858
213865,1867,1857,1856
213875,1869,1856,1855
213885,1863,1855,1855
213895,1867,1854,1859
213905,1861,1857,1855
213915,1866,1853,1850
213925,1863,1851,1853
213935,1862,1856,1855
213945,1859,1854,1855
213955,1861,1855,1849
213965,1863,1855,1853
213975,1862,1856,1850
213985,1861,1851,1854
213995,1859,1858,1847
214005,1856,1856,1851
214015,1859,1851,1851
214025,1861,1851,1849
214035,1863,1847,1853
214045,1862,1853,1849
214055,1858,1854,1854
214065,1857,1853,1845
214075,1858,1851,1853
214085,1861,1855,1853
214095,1863,1855,1853
214105,1859,1851,1854
214115,1862,1847,1850
214125,1860,1853,1852
214135,1858,1853,1852
214145,1862,1853,1855
214155,1863,1857,1847
214165,1859,1854,1850
214175,1859,1856,1851
214185,1860,1854,1853
214195,1858,1853,1851
214205,1859,1851,1853
214215,1859,1851,1851
214225,1861,1853,1850
214235,1857,1853,1847
214245,1859,1853,1850
214255,1862,1850,1853
214265,1862,1853,1854
214275,1861,1853,1847
214285,1859,1847,1850
214295,1858,1853,1851
214305,1861,1850,1850
214315,1862,1853,1850
214325,1861,1851,1849
214335,1866,1854,1850
214345,1863,1853,1855
214355,1870,1857,1854
214365,1872,1856,1856
214375,1874,1858,1865
214385,1882,1859,1866
214395,1889,1869,1871
214405,1893,1867,1872
214415,1898,1867,1877
214425,1902,1872,1877
214435,1899,1873,1884
214445,1901,1872,1883
214455,1899,1872,1885
214465,1894,1872,1885
214475,1894,1869,1883
214485,1887,1872,1879
214495,1887,1869,1877
214505,1882,1863,1873
214515,1878,1871,1874
214525,1872,1859,1872
214535,1870,1863,1872
214545,1872,1859,1866
214555,1865,1858,1863
214565,1869,1857,1865
214575,1865,1859,1866
214585,1866,1857,1856
214595,1862,1855,1860
214605,1864,1859,1863
214615,1859,1856,1859
214625,1863,1856,1857
214635,1862,1853,1856
214645,1859,1857,1855
214655,1860,1854,1857
214665,1860,1858,1858
214675,1862,1859,1862
214685,1871,1857,1862
214695,1863,1859,1865
214705,1867,1857,1858
214715,1862,1858,1861
214725,1869,1856,1862
214735,1866,1857,1859
214745,1868,1857,1863
214755,1866,1855,1861
214765,1863,1858,1856
214775,1863,1856,1858
214785,1861,1851,1855
214795,1866,1854,1858
214805,1857,1857,1855
214815,1862,1849,1854
214825,1859,1855,1856
214835,1858,1857,1856
214845,1857,1856,1853
214855,1856,1855,1851
214865,1855,1858,1853
214875,1853,1848,1850
214885,1856,1856,1849
214895,1855,1851,1853
214905,1854,1850,1853
214915,1847,1855,1850
214925,1853,1853,1849
214935,1851,1849,1849
214945,1855,1853,1849
214955,1856,1851,1850
214965,1856,1850,1851
214975,1855,1850,1847
214985,1857,1851,1851
214995,1854,1853,1853
215005,1861,1846,1854
215015,1857,1854,1852
215025,1859,1853,1854
215035,1859,1856,1855
215045,1861,1855,1855
215055,1857,1853,1852
215065,1858,1856,1853
215075,1862,1852,1851
215085,1859,1856,1853
215095,1861,1856,1853
215105,1856,1852,1851
215115,1859,1856,1848
215125,1859,1855,1853
215135,1857,1855,1851
215145,1854,1853,1856
215155,1858,1856,1851
215165,1858,1847,1851
215175,1859,1855,1849
215185,1859,1855,1848
215195,1859,1854,1851
215205,1856,1843,1847
215215,1859,1858,1850
215225,1858,1871,1847
215235,1859,1856,1855
215245,1870,1859,1854
215255,1870,1856,1858
215265,1871,1860,1858
215275,1882,1856,1869
215285,1882,1867,1873
215295,1889,1863,1879
215305,1889,1867,1883
215315,1893,1871,1885
215325,1894,1871,1891
215335,1892,1863,1890
215345,1895,1872,1889
215355,1888,1873,1889
215365,1891,1873,1885
215375,1887,1872,1883
215385,1884,1872,1883
215395,1879,1867,1884
215405,1881,1867,1879
215415,1875,1872,1875
215425,1873,1871,1872
215435,1872,1867,1872
215445,1872,1862,1872
215455,1872,1862,1871
215465,1872,1861,1865
215475,1872,1862,1862
215485,1863,1859,1865
215495,1863,1860,1861
215505,1867,1856,1861
215515,1862,1856,1861
215525,1866,1860,1862
215535,1866,1856,1861
215545,1865,1861,1859
215555,1868,1855,1855
215565,1858,1858,1861
215575,1867,1857,1859
215585,1868,1856,1858
215595,1866,1858,1863
215605,1867,1855,1857
215615,1871,1858,1862
215625,1872,1859,1858
215635,1870,1857,1858
215645,1871,1857,1857
215655,1871,1858,1859
215665,1867,1857,1856
215675,1867,1858,1861
215685,1871,1858,1858
215695,1867,1851,1857
215705,1863,1856,1857
215715,1859,1857,1855
215725,1867,1858,1858
215735,1867,1856,1855
215745,1863,1850,1852
215755,1866,1854,1852
215765,1863,1856,1853
215775,1861,1854,1851
215785,1859,1855,1852
215795,1863,1852,1853
215805,1865,1854,1853
215815,1861,1853,1847
215825,1862,1851,1847
215835,1859,1854,1851
215845,1862,1853,1853
215855,1862,1855,1850
215865,1862,1845,1849
215875,1856,1851,1849
215885,1862,1853,1853
215895,1863,1851,1853
215905,1863,1847,1850
215915,1861,1855,1851
215925,1861,1850,1850
215935,1861,1854,1851
215945,1862,1851,1846
215955,1856,1849,1846
215965,1859,1851,1850
215975,1860,1850,1847
215985,1858,1855,1850
215995,1858,1855,1850
216005,1859,1854,1851
216015,1861,1850,1852
216025,1862,1854,1847
216035,1863,1851,1850
216045,1857,1857,1852
216055,1863,1851,1844
216065,1861,1853,1847
216075,1861,1853,1847
216085,1860,1851,1850
216095,1857,1849,1849
216105,1855,1848,1848
216115,1855,1855,1849
216125,1863,1851,1850
216135,1857,1853,1849
216145,1862,1853,1847
216155,1860,1855,1847
216165,1865,1851,1851
216175,1865,1854,1850
216185,1870,1853,1854
216195,1872,1856,1857
216205,1874,1854,1858
216215,1879,1865,1867
216225,1882,1867,1870
216235,1889,1866,1874
216245,1894,1872,1881
216255,1897,1872,1884
216265,1895,1873,1887
216275,1897,1875,1889
216285,1892,1873,1890
216295,1890,1875,1889
216305,1894,1872,1886
216315,1884,1867,1883
216325,1886,1872,1883
216335,1878,1868,1877
216345,1874,1870,1877
216355,1872,1867,1872
216365,1872,1863,1872
216375,1873,1863,1871
216385,1869,1861,1871
216395,1870,1861,1869
216405,1871,1858,1862
216415,1866,1858,1865
216425,1865,1857,1863
216435,1863,1856,1859
216445,1861,1857,1862
216455,1863,1855,1858
216465,1865,1856,1857
216475,1863,1857,1856
216485,1861,1855,1858
216495,1865,1856,1859
216505,1870,1856,1856
216515,1871,1863,1861
216525,1867,1861,1859
216535,1866,1857,1863
216545,1871,1861,1867
216555,1870,1859,1864
216565,1868,1862,1862
216575,1870,1860,1858
216585,1871,1858,1863
216595,1869,1859,1861
216605,1869,1858,1858
216615,1866,1857,1858
216625,1861,1862,1855
216635,1868,1855,1855
216645,1863,1853,1854
216655,1861,1854,1852
216665,1857,1855,1855
216675,1856,1854,1849
216685,1856,1856,1850
216695,1857,1853,1849
216705,1858,1853,1852
216715,1857,1851,1853
216725,1859,1852,1856
216735,1862,1855,1853
216745,1858,1854,1852
216755,1857,1853,1847
216765,1861,1855,1851
216775,1859,1855,1847
216785,1858,1851,1854
216795,1859,1851,1858
216805,1859,1856,1853
216815,1859,1855,1851
216825,1862,1858,1853
216835,1861,1851,1850
216845,1861,1858,1856
216855,1861,1850,1851
216865,1860,1854,1851
216875,1859,1854,1849
216885,1861,1851,1851
216895,1862,1854,1851
216905,1863,1858,1851
216915,1862,1854,1851
216925,1861,1854,1847
216935,1860,1851,1850
216945,1861,1854,1853
216955,1859,1847,1845
216965,1859,1853,1850
216975,1858,1846,1851
216985,1863,1850,1853
216995,1861,1850,1846
217005,1861,1855,1852
217015,1861,1851,1851
217025,1863,1850,1851
217035,1861,1851,1846
217045,1861,1851,1851
217055,1862,1853,1853
217065,1863,1854,1853
217075,1872,1852,1856
217085,1873,1859,1861
217095,1879,1866,1861
217105,1881,1867,1872
217115,1890,1871,1872
217125,1891,1871,1877
217135,1904,1872,1882
217145,1904,1877,1887
217155,1904,1875,1887
217165,1904,1879,1889
217175,1904,1882,1890
217185,1897,1877,1885
217195,1895,1882,1887
217205,1891,1874,1877
217215,1890,1875,1875
217225,1883,1872,1881
217235,1885,1872,1873
217245,1877,1868,1874
217255,1876,1863,1870
217265,1874,1870,1871
217275,1872,1866,1870
217285,1871,1866,1865
217295,1866,1861,1864
217305,1863,1860,1863
217315,1867,1858,1859
217325,1863,1856,1858
217335,1857,1856,1857
217345,1856,1859,1855
217355,1859,1855,1852
217365,1854,1856,1853
217375,1855,1860,1854
217385,1859,1853,1854
217395,1859,1856,1851
217405,1864,1856,1853
217415,1863,1853,1851
217425,1858,1854,1854
217435,1864,1858,1854
217445,1861,1853,1855
217455,1863,1856,1854
217465,1862,1855,1857
217475,1861,1856,1858
217485,1860,1854,1856
217495,1859,1851,1855
217505,1863,1851,1856
217515,1859,1855,1856
217525,1859,1851,1849
217535,1860,1854,1850
217545,1856,1847,1851
217555,1855,1852,1850
217565,1857,1849,1847
217575,1859,1845,1850
217585,1857,1851,1845
217595,1859,1847,1847
217605,1859,1849,1851
217615,1857,1843,1847
217625,1863,1854,1850
217635,1858,1848,1845
217645,1858,1849,1847
217655,1863,1850,1852
217665,1860,1854,1848
217675,1858,1845,1840
217685,1862,1853,1846
217695,1861,1854,1847
217705,1859,1853,1843
217715,1859,1851,1846
217725,1862,1853,1849
217735,1862,1854,1845
217745,1861,1856,1851
217755,1861,1850,1850
217765,1860,1847,1844
217775,1861,1853,1847
217785,1863,1845,1850
217795,1858,1847,1845
217805,1863,1850,1850
217815,1858,1851,1849
217825,1863,1846,1846
217835,1866,1847,1851
217845,1862,1852,1851
217855,1861,1852,1847
217865,1866,1855,1849
217875,1865,1851,1855
217885,1864,1853,1854
217895,1863,1848,1850
217905,1865,1853,1852
217915,1861,1855,1850
217925,1862,1857,1849
217935,1866,1851,1852
217945,1863,1850,1849
217955,1858,1850,1846
217965,1857,1853,1845
217975,1861,1851,1847
217985,1861,1847,1845
217995,1859,1851,1844
218005,1862,1851,1846
218015,1865,1853,1849
218025,1870,1851,1856
218035,1872,1854,1857
218045,1877,1861,1861
218055,1884,1866,1868
218065,1883,1861,1872
218075,1894,1872,1876
218085,1895,1872,1879
218095,1899,1874,1885
218105,1902,1877,1887
218115,1901,1874,1888
218125,1902,1874,1888
218135,1903,1874,1888
218145,1895,1875,1888
218155,1895,1872,1882
218165,1885,1872,1885
218175,1881,1863,1878
218185,1872,1869,1875
218195,1873,1859,1872
218205,1872,1863,1871
218215,1872,1859,1869
218225,1871,1861,1866
218235,1871,1856,1866
218245,1868,1856,1862
218255,1869,1857,1859
218265,1867,1855,1857
218275,1870,1858,1857
218285,1870,1853,1854
218295,1866,1859,1856
218305,1862,1855,1856
218315,1858,1854,1857
218325,1865,1851,1853
218335,1865,1851,1857
218345,1862,1857,1859
218355,1867,1856,1857
218365,1872,1855,1861
218375,1869,1861,1859
218385,1869,1857,1857
218395,1871,1856,1859
218405,1870,1858,1856
218415,1869,1856,1862
218425,1861,1852,1857
218435,1868,1851,1855
218445,1866,1855,1854
218455,1867,1856,1854
218465,1862,1851,1853
218475,1867,1853,1855
218485,1857,1856,1853
218495,1865,1851,1851
218505,1858,1853,1847
218515,1861,1851,1853
218525,1856,1854,1844
218535,1859,1849,1847
218545,1856,1851,1846
218555,1856,1849,1850
218565,1854,1851,1843
218575,1858,1850,1847
218585,1856,1846,1843
218595,1855,1851,1849
218605,1858,1851,1845
218615,1856,1851,1849
218625,1857,1851,1849
218635,1862,1855,1848
218645,1859,1854,1850
218655,1858,1850,1845
218665,1858,1851,1846
218675,1858,1847,1845
218685,1863,1850,1851
218695,1858,1845,1848
218705,1861,1846,1849
218715,1856,1847,1847
218725,1860,1849,1851
218735,1856,1853,1842
218745,1862,1849,1851
218755,1855,1846,1845
218765,1863,1847,1846
218775,1855,1851,1843
218785,1862,1853,1846
218795,1856,1855,1844
218805,1863,1850,1841
218815,1863,1855,1844
218825,1862,1847,1842
218835,1863,1853,1843
218845,1867,1852,1842
218855,1863,1848,1847
218865,1857,1855,1848
218875,1862,1850,1846
218885,1865,1852,1847
218895,1858,1847,1843
218905,1860,1850,1846
218915,1860,1850,1847
218925,1857,1850,1847
218935,1860,1854,1845
218945,1859,1853,1850
218955,1861,1855,1850
218965,1863,1851,1849
218975,1861,1853,1849
218985,1858,1855,1852
218995,1867,1856,1854
219005,1872,1856,1856
219015,1872,1855,1861
219025,1876,1866,1869
219035,1886,1859,1872
219045,1894,1872,1879
219055,1903,1872,1885
219065,1906,1880,1889
219075,1910,1886,1891
219085,1908,1885,1897
219095,1907,1886,1899
219105,1913,1887,1900
219115,1906,1887,1901
219125,1904,1879,1897
219135,1898,1879,1895
219145,1889,1878,1893
219155,1883,1877,1881
219165,1878,1872,1881
219175,1876,1869,1878
219185,1872,1871,1872
219195,1867,1866,1873
219205,1872,1865,1871
219215,1871,1861,1871
219225,1862,1859,1863
219235,1866,1857,1862
219245,1862,1856,1863
219255,1866,1856,1861
219265,1867,1854,1860
219275,1865,1856,1859
219285,1863,1856,1860
219295,1866,1856,1856
219305,1866,1854,1858
219315,1867,1855,1858
219325,1865,1856,1856
219335,1867,1852,1863
219345,1863,1861,1859
219355,1871,1859,1855
219365,1870,1859,1856
219375,1870,1857,1862
219385,1866,1858,1859
219395,1871,1856,1859
219405,1871,1857,1857
219415,1869,1858,1856
219425,1867,1856,1860
219435,1861,1859,1855
219445,1866,1855,1853
219455,1861,1854,1849
219465,1859,1851,1846
219475,1857,1847,1847
219485,1855,1850,1846
219495,1856,1853,1842
219505,1856,1847,1843
219515,1854,1844,1842
219525,1855,1844,1841
219535,1855,1853,1844
219545,1857,1849,1842
219555,1857,1850,1845
219565,1862,1843,1843
219575,1857,1851,1842
219585,1856,1843,1840
219595,1859,1846,1841
219605,1858,1847,1841
219615,1861,1847,1845
219625,1859,1851,1840
219635,1859,1851,1843
219645,1859,1851,1842
219655,1857,1850,1842
219665,1856,1846,1840
219675,1861,1845,1842
219685,1858,1847,1841
219695,1857,1854,1843
219705,1855,1851,1840
219715,1856,1845,1840
219725,1855,1846,1842
219735,1856,1847,1843
219745,1856,1851,1841
219755,1856,1850,1840
219765,1855,1847,1841
219775,1857,1843,1840
219785,1856,1850,1843
219795,1859,1849,1847
219805,1858,1853,1846
219815,1856,1851,1844
219825,1860,1850,1842
219835,1858,1848,1841
219845,1859,1850,1840
219855,1856,1846,1845
219865,1857,1850,1842
219875,1856,1851,1845
219885,1855,1845,1843
219895,1859,1846,1848
219905,1857,1849,1849
219915,1856,1856,1843
219925,1857,1849,1843
219935,1861,1854,1840
219945,1861,1855,1844
219955,1863,1851,1843
219965,1859,1850,1842
219975,1862,1851,1845
219985,1865,1855,1848
219995,1867,1853,1851
220005,1867,1855,1855
220015,1872,1855,1859
220025,1872,1853,1856
220035,1877,1856,1859
220045,1885,1859,1869
220055,1882,1867,1869
220065,1883,1866,1873
220075,1885,1869,1872
220085,1884,1867,1872
220095,1885,1867,1872
220105,1877,1863,1872
220115,1878,1859,1871
220125,1871,1862,1871
220135,1872,1863,1870
220145,1869,1859,1865
220155,1865,1854,1859
220165,1863,1856,1858
220175,1859,1853,1859
220185,1861,1855,1851
220195,1855,1850,1850
220205,1855,1851,1852
220215,1857,1850,1855
220225,1854,1854,1846
220235,1855,1849,1849
220245,1856,1852,1846
220255,1855,1851,1853
220265,1858,1850,1849
220275,1859,1850,1853
220285,1859,1854,1846
220295,1863,1856,1850
220305,1865,1851,1853
220315,1865,1856,1855
220325,1870,1851,1853
220335,1869,1859,1852
220345,1871,1854,1854
220355,1867,1853,1857
220365,1867,1856,1856
220375,1869,1855,1856
220385,1865,1856,1853
220395,1865,1856,1855
220405,1861,1854,1855
220415,1861,1851,1854
220425,1865,1854,1855
220435,1860,1854,1855
220445,1857,1853,1854
220455,1865,1849,1853
220465,1861,1856,1849
220475,1864,1851,1853
220485,1861,1846,1850
220495,1862,1855,1847
220505,1863,1849,1850
220515,1862,1854,1850
220525,1862,1855,1847
220535,1863,1850,1851
220545,1865,1847,1847
220555,1857,1853,1846
220565,1862,1852,1845
220575,1862,1847,1847
220585,1863,1850,1846
220595,1863,1851,1843
220605,1860,1852,1849
220615,1863,1853,1851
220625,1859,1851,1847
220635,1862,1851,1846
220645,1862,1852,1847
220655,1862,1852,1853
220665,1862,1854,1847
220675,1859,1853,1847
220685,1863,1849,1844
220695,1857,1854,1855
220705,1859,1852,1847
220715,1858,1850,1847
220725,1859,1849,1851
220735,1862,1852,1849
220745,1858,1852,1852
220755,1859,1851,1855
220765,1858,1851,1852
220775,1865,1855,1851
220785,1863,1853,1849
220795,1862,1851,1850
220805,1867,1854,1849
220815,1861,1851,1846
220825,1862,1854,1846
220835,1862,1851,1849
220845,1863,1857,1852
220855,1865,1854,1847
220865,1860,1851,1847
220875,1866,1856,1851
220885,1870,1854,1857
220895,1872,1856,1858
220905,1872,1861,1857
220915,1875,1857,1861
220925,1878,1856,1867
220935,1887,1864,1872
220945,1887,1867,1872
220955,1889,1866,1874
220965,1887,1863,1878
220975,1885,1870,1878
220985,1883,1867,1877
220995,1887,1866,1879
221005,1880,1866,1879
221015,1878,1867,1876
221025,1877,1862,1873
221035,1872,1861,1872
221045,1868,1861,1872
221055,1869,1858,1869
221065,1859,1857,1863
221075,1863,1858,1862
221085,1861,1855,1858
221095,1858,1853,1861
221105,1861,1852,1860
221115,1861,1847,1858
221125,1859,1854,1858
221135,1857,1856,1857
221145,1861,1854,1856
221155,1857,1851,1851
221165,1861,1855,1856
221175,1861,1851,1856
221185,1866,1851,1856
221195,1862,1854,1856
221205,1866,1853,1860
221215,1866,1853,1857
221225,1869,1855,1859
221235,1870,1851,1857
221245,1870,1858,1860
221255,1871,1856,1857
221265,1865,1855,1862
221275,1865,1855,1865
221285,1871,1855,1862
221295,1870,1858,1859
221305,1870,1851,1858
221315,1867,1855,1857
221325,1870,1854,1857
221335,1869,1858,1857
221345,1867,1867,1858
221355,1865,1855,1857
221365,1866,1853,1857
221375,1862,1855,1854
221385,1862,1856,1857
221395,1862,1849,1853
221405,1863,1855,1853
221415,1863,1852,1852
221425,1863,1853,1854
221435,1861,1852,1853
221445,1861,1855,1847
221455,1866,1853,1854
221465,1862,1849,1856
221475,1861,1856,1853
221485,1863,1855,1850
221495,1861,1855,1855
221505,1857,1866,1852
221515,1859,1856,1853
221525,1862,1834,1840
221535,1865,1854,1855
221545,1859,1856,1850
221555,1866,1857,1854
221565,1866,1856,1851
221575,1865,1859,1855
221585,1867,1847,1852
221595,1863,1855,1854
221605,1866,1857,1853
221615,1867,1856,1851
221625,1862,1853,1852
221635,1862,1854,1851
221645,1861,1856,1856
221655,1868,1853,1855
221665,1866,1862,1857
221675,1871,1858,1859
221685,1873,1853,1854
221695,1872,1859,1861
221705,1873,1856,1862
221715,1883,1862,1870
221725,1886,1867,1871
221735,1885,1872,1872
221745,1892,1871,1879
221755,1897,1871,1884
221765,1902,1875,1885
221775,1900,1872,1884
221785,1909,1876,1887
221795,1897,1872,1886
221805,1891,1873,1885
221815,1890,1872,1879
221825,1886,1871,1887
221835,1874,1866,1883
221845,1875,1869,1878
221855,1872,1869,1874
221865,1872,1859,1874
221875,1869,1862,1870
221885,1872,1857,1863
221895,1870,1856,1862
221905,1862,1856,1867
221915,1863,1855,1863
221925,1863,1852,1859
221935,1869,1856,1859
221945,1865,1856,1855
221955,1859,1853,1860
221965,1859,1854,1856
221975,1863,1856,1862
221985,1867,1854,1865
221995,1866,1857,1861
222005,1869,1855,1858
222015,1867,1856,1860
222025,1871,1858,1863
222035,1871,1858,1859
222045,1872,1858,1860
222055,1870,1859,1861
222065,1872,1861,1865
222075,1872,1860,1862
222085,1872,1855,1861
222095,1872,1858,1863
222105,1871,1859,1861
222115,1870,1858,1863
222125,1871,1856,1857
222135,1872,1851,1860
222145,1868,1856,1857
222155,1868,1855,1859
222165,1866,1856,1857
222175,1861,1855,1854
222185,1863,1853,1857
222195,1865,1856,1856
222205,1865,1856,1851
222215,1861,1851,1854
222225,1866,1855,1857
222235,1862,1854,1854
222245,1863,1855,1852
222255,1865,1855,1856
222265,1859,1853,1847
222275,1862,1853,1849
222285,1863,1853,1853
222295,1862,1847,1857
222305,1866,1857,1851
222315,1867,1854,1852
222325,1861,1855,1852
222335,1862,1855,1856
222345,1861,1856,1855
222355,1857,1856,1855
222365,1859,1856,1853
222375,1867,1850,1856
222385,1862,1854,1852
222395,1867,1853,1855
222405,1865,1856,1853
222415,1865,1855,1855
222425,1861,1855,1853
222435,1863,1855,1854
222445,1864,1854,1856
222455,1869,1856,1857
222465,1872,1855,1856
222475,1872,1858,1858
222485,1878,1861,1863
222495,1883,1861,1865
222505,1888,1867,1872
222515,1899,1866,1877
222525,1904,1872,1883
222535,1904,1877,1884
222545,1904,1878,1887
222555,1905,1877,1890
222565,1904,1875,1887
222575,1904,1877,1891
222585,1904,1877,1893
222595,1901,1874,1889
222605,1897,1873,1886
222615,1891,1872,1885
222625,1883,1871,1882
222635,1878,1862,1878
222645,1872,1861,1875
222655,1875,1858,1869
222665,1871,1861,1871
222675,1867,1857,1869
222685,1866,1859,1863
222695,1864,1855,1865
222705,1865,1851,1862
222715,1865,1856,1861
222725,1861,1855,1857
222735,1862,1858,1857
222745,1859,1855,1858
222755,1863,1856,1855
222765,1863,1852,1859
222775,1864,1856,1857
222785,1866,1856,1861
222795,1867,1857,1857
222805,1871,1856,1861
222815,1870,1858,1859
222825,1872,1857,1856
222835,1872,1858,1865
222845,1872,1859,1861
222855,1874,1855,1863
222865,1869,1859,1861
222875,1867,1860,1862
222885,1869,1858,1858
222895,1871,1859,1857
222905,1869,1856,1858
222915,1870,1856,1862
222925,1865,1858,1857
222935,1862,1853,1856
222945,1867,1855,1859
222955,1863,1854,1855
222965,1863,1855,1851
222975,1859,1856,1856
222985,1858,1855,1854
222995,1859,1851,1854
223005,1856,1853,1850
223015,1855,1851,1853
223025,1858,1849,1850
223035,1858,1854,1854
223045,1859,1850,1851
223055,1858,1847,1850
223065,1859,1851,1851
223075,1859,1856,1849
223085,1858,1851,1850
223095,1858,1855,1857
223105,1859,1853,1855
223115,1863,1857,1856
223125,1859,1857,1853
223135,1861,1852,1853
223145,1862,1855,1850
223155,1858,1851,1854
223165,1863,1856,1854
223175,1865,1855,1850
223185,1861,1854,1854
223195,1863,1851,1850
223205,1863,1854,1855
223215,1859,1856,1854
223225,1857,1856,1851
223235,1857,1850,1856
223245,1861,1856,1855
223255,1869,1857,1851
223265,1872,1856,1861
223275,1877,1859,1858
223285,1885,1866,1867
223295,1891,1868,1873
223305,1901,1872,1883
223315,1904,1875,1885
223325,1906,1877,1888
223335,1911,1878,1891
223345,1914,1883,1893
223355,1911,1887,1895
223365,1906,1877,1895
223375,1906,1879,1890
223385,1903,1872,1890
223395,1902,1874,1885
223405,1890,1874,1882
223415,1885,1870,1878
223425,1879,1870,1875
223435,1877,1868,1877
223445,1873,1865,1871
223455,1872,1861,1869
223465,1872,1858,1871
223475,1869,1861,1863
223485,1871,1862,1867
223495,1869,1859,1863
223505,1867,1855,1858
223515,1866,1858,1859
223525,1862,1856,1858
223535,1866,1858,1856
223545,1863,1856,1857
223555,1863,1856,1857
223565,1869,1857,1858
223575,1869,1857,1857
223585,1867,1858,1861
223595,1871,1855,1860
223605,1872,1859,1861
223615,1872,1860,1861
223625,1872,1862,1858
223635,1872,1859,1859
223645,1872,1859,1859
223655,1871,1858,1856
223665,1872,1856,1861
223675,1872,1854,1858
223685,1870,1859,1858
223695,1870,1859,1855
223705,1869,1857,1858
223715,1865,1857,1861
223725,1858,1855,1854
223735,1863,1855,1851
223745,1856,1853,1856
223755,1866,1847,1856
223765,1859,1856,1854
223775,1861,1854,1855
223785,1859,1855,1853
223795,1861,1857,1854
223805,1861,1857,1851
223815,1861,1850,1851
223825,1858,1854,1851
223835,1862,1850,1850
223845,1862,1856,1850
223855,1865,1853,1847
223865,1863,1856,1850
223875,1860,1849,1853
223885,1863,1854,1853
223895,1861,1856,1852
223905,1865,1855,1853
223915,1863,1852,1853
223925,1858,1852,1851
223935,1862,1857,1853
223945,1861,1856,1854
223955,1862,1855,1854
223965,1861,1851,1853
223975,1863,1855,1850
223985,1863,1857,1847
223995,1859,1853,1850
224005,1858,1853,1854
224015,1859,1851,1851
224025,1862,1854,1853
224035,1861,1853,1853
224045,1861,1853,1847
224055,1866,1853,1850
224065,1869,1853,1855
224075,1872,1856,1857
224085,1879,1863,1860
224095,1886,1863,1866
224105,1894,1871,1870
224115,1901,1872,1875
224125,1907,1869,1881
224135,1909,1878,1883
224145,1915,1882,1887
224155,1922,1888,1889
224165,1918,1880,1888
224175,1910,1883,1891
224185,1907,1875,1889
224195,1907,1879,1885
224205,1902,1875,1885
224215,1898,1872,1882
224225,1889,1872,1875
224235,1887,1867,1873
224245,1883,1866,1872
224255,1878,1869,1871
224265,1874,1866,1870
224275,1875,1862,1867
224285,1872,1857,1865
224295,1872,1861,1863
224305,1872,1862,1863
224315,1870,1855,1859
224325,1867,1854,1857
224335,1867,1857,1857
224345,1867,1856,1863
224355,1863,1854,1858
224365,1861,1855,1855
224375,1861,1855,1859
224385,1869,1857,1857
224395,1869,1856,1859
224405,1867,1858,1857
224415,1872,1856,1854
224425,1871,1857,1859
224435,1872,1859,1835
224445,1869,1855,1859
224455,1868,1856,1856
224465,1869,1859,1857
224475,1867,1855,1858
224485,1867,1856,1856
224495,1866,1853,1854
224505,1866,1857,1858
224515,1859,1851,1854
224525,1859,1851,1855
224535,1857,1850,1851
224545,1856,1853,1845
224555,1857,1852,1851
224565,1856,1844,1852
224575,1855,1847,1851
224585,1854,1847,1845
224595,1850,1849,1845
224605,1856,1851,1847
224615,1855,1851,1846
224625,1854,1846,1844
224635,1854,1846,1851
224645,1853,1850,1845
224655,1855,1849,1850
224665,1854,1850,1846
224675,1854,1854,1850
224685,1853,1847,1847
224695,1857,1846,1846
224705,1857,1850,1848
224715,1855,1849,1846
224725,1856,1851,1847
224735,1853,1851,1851
224745,1857,1855,1850
224755,1852,1855,1849
