timestamp_ms_device,ppg_finger1,ppg_finger2,ppg_finger3
2197000,1925,1887,1905
2197010,1923,1891,1905
2197020,1921,1885,1904
2197030,1917,1885,1901
2197040,1912,1879,1898
2197050,1904,1875,1893
2197060,1902,1875,1890
2197070,1891,1872,1888
2197080,1890,1870,1879
2197090,1883,1867,1874
2197100,1877,1867,1872
2197110,1872,1859,1868
2197120,1866,1858,1867
2197130,1863,1855,1861
2197140,1856,1854,1859
2197150,1853,1852,1853
2197160,1851,1847,1853
2197170,1849,1849,1845
2197180,1844,1849,1847
2197190,1845,1846,1845
2197200,1846,1847,1844
2197210,1845,1845,1845
2197220,1847,1850,1844
2197230,1847,1853,1845
2197240,1850,1851,1847
2197250,1854,1851,1850
2197260,1856,1854,1849
2197270,1856,1851,1853
2197280,1857,1854,1856
2197290,1858,1855,1850
2197300,1857,1855,1850
2197310,1856,1853,1851
2197320,1857,1853,1852
2197330,1855,1850,1851
2197340,1856,1853,1851
2197350,1856,1847,1851
2197360,1856,1850,1850
2197370,1853,1851,1847
2197380,1856,1850,1850
2197390,1853,1846,1845
2197400,1853,1851,1847
2197410,1851,1848,1847
2197420,1851,1850,1845
2197430,1853,1849,1847
2197440,1851,1847,1849
2197450,1854,1847,1844
2197460,1856,1845,1846
2197470,1854,1847,1847
2197480,1854,1847,1845
2197490,1856,1853,1851
2197500,1855,1849,1851
2197510,1857,1854,1850
2197520,1856,1852,1850
2197530,1855,1851,1851
2197540,1859,1850,1851
2197550,1858,1855,1847
2197560,1856,1856,1853
2197570,1859,1854,1854
2197580,1858,1855,1851
2197590,1859,1851,1849
2197600,1861,1852,1853
2197610,1859,1854,1851
2197620,1859,1853,1851
2197630,1861,1855,1856
2197640,1856,1847,1849
2197650,1861,1862,1855
2197660,1862,1856,1855
2197670,1863,1857,1857
2197680,1870,1863,1856
2197690,1872,1863,1862
2197700,1879,1869,1862
2197710,1887,1871,1871
2197720,1895,1872,1871
2197730,1904,1879,1878
2197740,1910,1885,1886
2197750,1919,1889,1890
2197760,1921,1890,1897
2197770,1929,1890,1902
2197780,1925,1889,1903
2197790,1927,1891,1902
2197800,1927,1892,1905
2197810,1923,1887,1904
2197820,1919,1885,1904
2197830,1913,1882,1899
2197840,1909,1882,1898
2197850,1904,1879,1894
2197860,1901,1872,1891
2197870,1894,1872,1886
2197880,1890,1872,1877
2197890,1886,1871,1877
2197900,1877,1868,1873
2197910,1872,1860,1872
2197920,1866,1858,1869
2197930,1863,1856,1862
2197940,1856,1854,1856
2197950,1853,1849,1856
2197960,1850,1849,1850
2197970,1849,1849,1845
2197980,1846,1847,1845
2197990,1845,1849,1843
2198000,1850,1844,1843
2198010,1845,1847,1842
2198020,1849,1846,1841
2198030,1857,1845,1842
2198040,1856,1851,1847
2198050,1856,1850,1847
2198060,1856,1846,1843
2198070,1860,1851,1845
2198080,1857,1850,1849
2198090,1855,1846,1850
2198100,1856,1846,1847
2198110,1858,1847,1847
2198120,1858,1849,1850
2198130,1861,1851,1849
2198140,1861,1850,1850
2198150,1862,1850,1851
2198160,1860,1851,1846
2198170,1861,1853,1846
2198180,1858,1850,1849
2198190,1859,1851,1847
2198200,1859,1849,1845
2198210,1856,1850,1843
2198220,1856,1853,1843
2198230,1856,1847,1843
2198240,1855,1846,1845
2198250,1854,1847,1845
2198260,1854,1845,1844
2198270,1854,1850,1845
2198280,1855,1847,1845
2198290,1855,1847,1841
2198300,1857,1847,1847
2198310,1856,1849,1847
2198320,1856,1850,1850
2198330,1856,1851,1847
2198340,1855,1849,1846
2198350,1858,1852,1849
2198360,1856,1851,1849
2198370,1858,1849,1847
2198380,1855,1853,1847
2198390,1856,1852,1845
2198400,1855,1849,1851
2198410,1856,1851,1851
2198420,1859,1850,1850
2198430,1859,1853,1849
2198440,1859,1852,1851
2198450,1861,1855,1850
2198460,1865,1857,1853
2198470,1872,1862,1853
2198480,1873,1861,1856
2198490,1879,1871,1857
2198500,1892,1872,1862
2198510,1898,1872,1869
2198520,1906,1878,1872
2198530,1915,1883,1872
2198540,1921,1887,1878
2198550,1926,1887,1885
2198560,1931,1887,1887
2198570,1930,1889,1887
2198580,1930,1888,1892
2198590,1933,1886,1890
2198600,1927,1885,1891
2198610,1925,1885,1891
2198620,1919,1883,1889
2198630,1911,1879,1887
2198640,1909,1877,1886
2198650,1905,1875,1883
2198660,1898,1872,1877
2198670,1893,1872,1875
2198680,1883,1872,1874
2198690,1879,1867,1870
2198700,1872,1863,1867
2198710,1869,1859,1862
2198720,1858,1856,1856
2198730,1855,1853,1856
2198740,1850,1851,1853
2198750,1850,1850,1850
2198760,1846,1849,1850
2198770,1841,1845,1851
2198780,1846,1852,1846
2198790,1844,1849,1845
2198800,1844,1846,1842
2198810,1849,1851,1847
2198820,1849,1851,1846
2198830,1856,1853,1847
2198840,1856,1852,1846
2198850,1856,1851,1851
2198860,1858,1853,1850
2198870,1860,1853,1854
2198880,1859,1855,1853
2198890,1860,1856,1853
2198900,1859,1856,1853
2198910,1857,1855,1853
2198920,1858,1853,1851
2198930,1856,1852,1852
2198940,1854,1853,1851
2198950,1856,1852,1850
2198960,1854,1848,1852
2198970,1855,1851,1852
2198980,1851,1846,1849
2198990,1851,1850,1851
2199000,1853,1852,1847
2199010,1851,1849,1851
2199020,1849,1850,1845
2199030,1852,1851,1850
2199040,1847,1851,1855
2199050,1850,1849,1850
2199060,1852,1849,1850
2199070,1852,1853,1851
2199080,1852,1851,1851
2199090,1855,1850,1853
2199100,1855,1853,1851
2199110,1855,1853,1851
2199120,1856,1850,1855
2199130,1856,1851,1851
2199140,1856,1854,1854
2199150,1856,1853,1854
2199160,1855,1851,1855
2199170,1856,1851,1855
2199180,1857,1853,1853
2199190,1859,1851,1853
2199200,1855,1852,1853
2199210,1857,1850,1851
2199220,1859,1852,1856
2199230,1862,1855,1856
2199240,1866,1858,1855
2199250,1869,1859,1858
2199260,1873,1863,1859
2199270,1882,1871,1865
2199280,1888,1872,1868
2199290,1897,1874,1872
2199300,1904,1879,1872
2199310,1905,1882,1875
2199320,1910,1883,1881
2199330,1915,1885,1883
2199340,1911,1884,1885
2199350,1911,1884,1883
2199360,1909,1884,1885
2199370,1907,1879,1885
2199380,1905,1877,1883
2199390,1902,1876,1881
2199400,1901,1873,1878
2199410,1895,1873,1874
2199420,1889,1872,1874
2199430,1887,1871,1873
2199440,1881,1870,1872
2199450,1873,1866,1872
2199460,1872,1863,1871
2199470,1867,1862,1869
2199480,1863,1859,1863
2199490,1859,1855,1860
2199500,1856,1856,1859
2199510,1853,1853,1855
2199520,1848,1851,1856
2199530,1851,1851,1851
2199540,1843,1847,1851
2199550,1845,1846,1851
2199560,1845,1851,1850
2199570,1849,1847,1850
2199580,1847,1852,1851
2199590,1851,1851,1850
2199600,1853,1854,1850
2199610,1851,1853,1851
2199620,1856,1851,1851
2199630,1856,1847,1853
2199640,1856,1851,1851
2199650,1856,1852,1853
2199660,1859,1851,1854
2199670,1857,1853,1852
2199680,1857,1855,1854
2199690,1859,1853,1851
2199700,1858,1851,1855
2199710,1859,1852,1854
2199720,1859,1856,1855
2199730,1856,1853,1850
2199740,1855,1853,1855
2199750,1857,1849,1853
2199760,1856,1851,1853
2199770,1854,1847,1852
2199780,1856,1851,1855
2199790,1856,1850,1855
2199800,1856,1847,1851
2199810,1856,1847,1854
2199820,1856,1849,1852
2199830,1853,1854,1854
2199840,1857,1850,1853
2199850,1856,1850,1854
2199860,1856,1852,1856
2199870,1858,1850,1856
2199880,1855,1853,1851
2199890,1858,1854,1855
2199900,1861,1853,1853
2199910,1858,1854,1854
2199920,1859,1855,1851
2199930,1860,1855,1853
2199940,1861,1856,1856
2199950,1861,1855,1856
2199960,1863,1851,1857
2199970,1862,1851,1856
2199980,1863,1853,1855
2199990,1860,1856,1856
2200000,1863,1850,1857
2200010,1861,1853,1857
2200020,1863,1855,1858
2200030,1866,1856,1856
2200040,1871,1856,1857
2200050,1872,1857,1860
2200060,1875,1862,1861
2200070,1882,1866,1862
2200080,1889,1870,1866
2200090,1898,1872,1870
2200100,1904,1879,1872
2200110,1911,1882,1876
2200120,1918,1883,1877
2200130,1921,1887,1884
2200140,1923,1887,1885
2200150,1931,1887,1886
2200160,1930,1887,1891
2200170,1930,1887,1891
2200180,1926,1887,1893
2200190,1924,1883,1888
2200200,1921,1879,1892
2200210,1915,1879,1889
2200220,1915,1879,1887
2200230,1909,1878,1882
2200240,1904,1873,1882
2200250,1901,1872,1879
2200260,1895,1872,1877
2200270,1890,1871,1873
2200280,1885,1869,1872
2200290,1881,1863,1872
2200300,1873,1863,1867
2200310,1871,1859,1862
2200320,1869,1856,1861
2200330,1859,1856,1858
2200340,1859,1855,1858
2200350,1856,1853,1855
2200360,1856,1850,1853
2200370,1856,1850,1851
2200380,1855,1851,1850
2200390,1856,1852,1854
2200400,1857,1851,1850
2200410,1857,1851,1855
2200420,1857,1853,1855
2200430,1860,1849,1855
2200440,1860,1850,1854
2200450,1859,1853,1855
2200460,1859,1853,1855
2200470,1862,1853,1853
2200480,1862,1853,1855
2200490,1860,1850,1854
2200500,1858,1855,1855
2200510,1859,1851,1857
2200520,1859,1852,1854
2200530,1858,1849,1855
2200540,1856,1852,1856
2200550,1853,1851,1854
2200560,1854,1850,1851
2200570,1856,1849,1853
2200580,1855,1854,1853
2200590,1856,1845,1852
2200600,1857,1851,1856
2200610,1856,1854,1854
2200620,1859,1853,1853
2200630,1857,1853,1855
2200640,1856,1851,1856
2200650,1860,1856,1853
2200660,1862,1854,1855
2200670,1862,1850,1855
2200680,1865,1855,1855
2200690,1867,1857,1859
2200700,1867,1856,1862
2200710,1866,1859,1863
2200720,1869,1856,1854
2200730,1871,1858,1855
2200740,1871,1858,1858
2200750,1873,1857,1857
2200760,1872,1857,1857
2200770,1875,1859,1858
2200780,1873,1860,1858
2200790,1873,1858,1857
2200800,1873,1858,1858
2200810,1872,1855,1856
2200820,1872,1857,1858
2200830,1876,1856,1857
2200840,1873,1856,1858
2200850,1874,1857,1859
2200860,1873,1857,1858
2200870,1875,1859,1855
2200880,1878,1863,1861
2200890,1888,1865,1863
2200900,1897,1870,1867
2200910,1905,1872,1870
2200920,1915,1875,1875
2200930,1925,1883,1878
2200940,1938,1887,1887
2200950,1945,1894,1894
2200960,1951,1897,1899
2200970,1953,1898,1898
2200980,1957,1901,1903
2200990,1959,1901,1904
2201000,1957,1898,1904
2201010,1952,1897,1904
2201020,1947,1898,1904
2201030,1941,1897,1903
2201040,1936,1890,1899
2201050,1931,1886,1899
2201060,1921,1882,1894
2201070,1916,1882,1893
2201080,1910,1880,1887
2201090,1901,1872,1887
2201100,1898,1872,1881
2201110,1885,1869,1876
2201120,1878,1861,1872
2201130,1872,1856,1872
2201140,1866,1856,1870
2201150,1859,1853,1867
2201160,1853,1843,1859
2201170,1849,1846,1858
2201180,1846,1843,1856
2201190,1846,1841,1854
2201200,1845,1843,1855
2201210,1843,1845,1854
2201220,1844,1841,1852
2201230,1847,1843,1855
2201240,1845,1844,1853
2201250,1849,1849,1856
2201260,1850,1845,1855
2201270,1847,1850,1856
2201280,1851,1846,1855
2201290,1850,1850,1855
2201300,1851,1849,1853
2201310,1847,1850,1853
2201320,1850,1852,1852
2201330,1847,1851,1855
2201340,1850,1855,1852
2201350,1849,1847,1854
2201360,1847,1853,1849
2201370,1846,1850,1850
2201380,1847,1851,1853
2201390,1849,1847,1850
2201400,1844,1851,1850
2201410,1849,1850,1850
2201420,1847,1846,1847
2201430,1845,1847,1850
2201440,1845,1847,1852
2201450,1844,1850,1851
2201460,1847,1849,1853
2201470,1847,1850,1849
2201480,1847,1852,1850
2201490,1849,1847,1851
2201500,1855,1851,1851
2201510,1851,1850,1851
2201520,1851,1851,1850
2201530,1854,1850,1853
2201540,1853,1853,1854
2201550,1854,1852,1853
2201560,1853,1855,1853
2201570,1855,1854,1853
2201580,1854,1853,1856
2201590,1857,1854,1856
2201600,1855,1850,1856
2201610,1858,1853,1855
2201620,1857,1850,1853
2201630,1855,1854,1853
2201640,1857,1851,1851
2201650,1853,1853,1854
2201660,1855,1854,1855
2201670,1853,1851,1853
2201680,1853,1853,1853
2201690,1855,1849,1854
2201700,1854,1848,1854
2201710,1854,1847,1855
2201720,1852,1852,1852
2201730,1855,1849,1855
2201740,1861,1854,1856
2201750,1863,1857,1857
2201760,1869,1861,1856
2201770,1876,1863,1860
2201780,1886,1871,1862
2201790,1898,1872,1871
2201800,1904,1877,1872
2201810,1915,1878,1882
2201820,1919,1880,1883
2201830,1922,1885,1885
2201840,1926,1887,1890
2201850,1929,1899,1894
2201860,1929,1889,1895
2201870,1925,1887,1898
2201880,1923,1887,1899
2201890,1918,1885,1898
2201900,1915,1885,1897
2201910,1910,1878,1891
2201920,1904,1876,1891
2201930,1899,1874,1887
2201940,1895,1872,1885
2201950,1887,1869,1881
2201960,1882,1865,1874
2201970,1874,1862,1872
2201980,1872,1862,1872
2201990,1866,1856,1866
2202000,1859,1854,1865
2202010,1854,1855,1857
2202020,1851,1850,1856
2202030,1847,1850,1855
2202040,1845,1843,1851
2202050,1843,1846,1852
2202060,1841,1845,1855
2202070,1843,1843,1845
2202080,1842,1846,1849
2202090,1845,1847,1848
2202100,1845,1847,1849
2202110,1843,1849,1851
2202120,1849,1850,1851
2202130,1846,1851,1854
2202140,1851,1853,1850
2202150,1850,1853,1853
2202160,1853,1853,1853
2202170,1852,1851,1856
2202180,1853,1853,1850
2202190,1853,1853,1851
2202200,1853,1851,1851
2202210,1851,1851,1851
2202220,1849,1850,1851
2202230,1846,1851,1854
2202240,1853,1851,1846
2202250,1849,1852,1851
2202260,1850,1850,1846
2202270,1847,1850,1844
2202280,1847,1850,1846
2202290,1852,1849,1847
2202300,1849,1847,1849
2202310,1849,1852,1853
2202320,1849,1850,1849
2202330,1850,1847,1847
2202340,1850,1850,1847
2202350,1849,1846,1850
2202360,1847,1847,1849
2202370,1853,1851,1847
2202380,1851,1853,1850
2202390,1855,1849,1853
2202400,1854,1853,1853
2202410,1851,1852,1850
2202420,1855,1850,1850
2202430,1855,1851,1849
2202440,1855,1853,1853
2202450,1856,1851,1854
2202460,1856,1851,1851
2202470,1856,1851,1852
2202480,1856,1853,1853
2202490,1856,1854,1853
2202500,1856,1850,1854
2202510,1858,1849,1853
2202520,1859,1851,1851
2202530,1859,1854,1852
2202540,1857,1853,1853
2202550,1858,1853,1850
2202560,1857,1854,1852
2202570,1857,1851,1851
2202580,1856,1854,1855
2202590,1857,1851,1854
2202600,1857,1854,1854
2202610,1857,1854,1853
2202620,1856,1855,1853
2202630,1860,1857,1854
2202640,1863,1855,1853
2202650,1869,1856,1855
2202660,1872,1859,1856
2202670,1879,1867,1860
2202680,1887,1871,1862
2202690,1899,1872,1867
2202700,1904,1874,1872
2202710,1911,1881,1874
2202720,1918,1884,1878
2202730,1923,1886,1883
2202740,1923,1887,1884
2202750,1929,1888,1888
2202760,1929,1889,1889
2202770,1929,1887,1891
2202780,1925,1888,1888
2202790,1922,1887,1888
2202800,1919,1884,1890
2202810,1911,1879,1886
2202820,1907,1883,1888
2202830,1903,1878,1882
2202840,1899,1873,1882
2202850,1892,1871,1876
2202860,1890,1872,1875
2202870,1884,1869,1873
2202880,1878,1867,1871
2202890,1872,1861,1869
2202900,1871,1858,1867
2202910,1866,1855,1861
2202920,1858,1855,1856
2202930,1855,1854,1861
2202940,1851,1850,1855
2202950,1846,1850,1851
2202960,1851,1853,1846
2202970,1849,1845,1851
2202980,1850,1847,1852
2202990,1851,1850,1847
2203000,1851,1850,1852
2203010,1853,1851,1850
2203020,1852,1853,1854
2203030,1856,1852,1855
2203040,1856,1851,1856
2203050,1857,1852,1853
2203060,1857,1854,1856
2203070,1856,1853,1856
2203080,1861,1851,1854
2203090,1856,1851,1855
2203100,1855,1851,1855
2203110,1856,1851,1850
2203120,1855,1851,1854
2203130,1857,1852,1854
2203140,1854,1851,1854
2203150,1855,1849,1854
2203160,1853,1850,1854
2203170,1854,1851,1853
2203180,1853,1853,1851
2203190,1854,1847,1850
2203200,1854,1851,1853
2203210,1853,1849,1854
2203220,1854,1851,1851
2203230,1853,1850,1854
2203240,1854,1853,1850
2203250,1853,1851,1851
2203260,1854,1850,1851
2203270,1853,1853,1853
2203280,1853,1851,1849
2203290,1853,1850,1851
2203300,1855,1851,1851
2203310,1855,1852,1852
2203320,1856,1851,1854
2203330,1856,1852,1854
2203340,1855,1851,1850
2203350,1855,1853,1852
2203360,1856,1854,1857
2203370,1856,1854,1852
2203380,1857,1851,1854
2203390,1857,1851,1855
2203400,1858,1851,1853
2203410,1858,1854,1854
2203420,1858,1852,1853
2203430,1862,1851,1855
2203440,1861,1852,1856
2203450,1856,1854,1854
2203460,1857,1853,1855
2203470,1858,1853,1855
2203480,1860,1855,1854
2203490,1858,1851,1856
2203500,1859,1854,1851
2203510,1861,1856,1855
2203520,1861,1857,1856
2203530,1867,1859,1854
2203540,1871,1861,1856
2203550,1872,1869,1863
2203560,1881,1870,1867
2203570,1889,1872,1867
2203580,1892,1879,1871
2203590,1904,1879,1872
2203600,1907,1882,1872
2203610,1915,1887,1877
2203620,1919,1889,1876
2203630,1921,1888,1884
2203640,1921,1890,1883
2203650,1921,1886,1879
2203660,1920,1886,1886
2203670,1915,1886,1883
2203680,1911,1881,1886
2203690,1907,1878,1883
2203700,1904,1877,1879
2203710,1898,1872,1879
2203720,1895,1872,1877
2203730,1890,1871,1875
2203740,1883,1869,1872
2203750,1881,1865,1871
2203760,1873,1862,1871
2203770,1872,1860,1865
2203780,1867,1856,1863
2203790,1864,1856,1859
2203800,1856,1857,1858
2203810,1856,1847,1854
2203820,1850,1851,1853
2203830,1850,1845,1858
2203840,1851,1849,1843
2203850,1853,1850,1852
2203860,1851,1846,1846
2203870,1856,1853,1854
2203880,1854,1849,1849
2203890,1857,1853,1855
2203900,1856,1854,1854
2203910,1857,1854,1853
2203920,1859,1853,1855
2203930,1861,1855,1856
2203940,1859,1854,1854
2203950,1860,1854,1855
2203960,1858,1851,1855
2203970,1861,1853,1855
2203980,1859,1851,1855
2203990,1858,1855,1856
2204000,1858,1853,1856
2204010,1856,1851,1855
2204020,1856,1851,1854
2204030,1856,1851,1852
2204040,1854,1850,1851
2204050,1856,1850,1850
2204060,1853,1846,1853
2204070,1857,1851,1854
2204080,1851,1847,1853
2204090,1855,1850,1855
2204100,1851,1847,1853
2204110,1854,1849,1851
2204120,1856,1850,1854
2204130,1851,1847,1853
2204140,1853,1847,1853
2204150,1853,1850,1853
2204160,1855,1849,1854
2204170,1855,1850,1855
2204180,1854,1849,1857
2204190,1853,1851,1853
2204200,1853,1853,1855
2204210,1856,1847,1850
2204220,1853,1849,1856
2204230,1855,1853,1855
2204240,1856,1853,1856
2204250,1856,1854,1855
2204260,1859,1853,1855
2204270,1856,1855,1856
2204280,1855,1855,1856
2204290,1856,1853,1855
2204300,1856,1853,1856
2204310,1855,1851,1857
2204320,1857,1852,1856
2204330,1857,1855,1856
2204340,1857,1855,1855
2204350,1861,1855,1857
2204360,1865,1857,1859
2204370,1868,1859,1860
2204380,1872,1864,1862
2204390,1874,1870,1869
2204400,1884,1872,1869
2204410,1889,1874,1872
2204420,1895,1878,1874
2204430,1901,1879,1878
2204440,1903,1881,1882
2204450,1904,1886,1885
2204460,1905,1884,1886
2204470,1904,1886,1887
2204480,1904,1883,1888
2204490,1904,1881,1889
2204500,1901,1883,1891
2204510,1899,1878,1887
2204520,1893,1879,1887
2204530,1893,1874,1885
2204540,1889,1872,1887
2204550,1884,1872,1880
2204560,1878,1871,1876
2204570,1873,1868,1877
2204580,1872,1865,1873
2204590,1871,1862,1872
2204600,1869,1861,1869
2204610,1865,1857,1867
2204620,1859,1856,1863
2204630,1856,1854,1858
2204640,1856,1853,1855
2204650,1854,1851,1853
2204660,1854,1853,1855
2204670,1851,1851,1853
2204680,1853,1851,1856
2204690,1855,1851,1855
2204700,1856,1851,1851
2204710,1857,1850,1855
2204720,1855,1853,1856
2204730,1859,1853,1854
2204740,1858,1855,1856
2204750,1861,1853,1856
2204760,1858,1853,1856
2204770,1861,1854,1855
2204780,1861,1854,1857
2204790,1858,1854,1855
2204800,1861,1853,1856
2204810,1859,1853,1855
2204820,1858,1855,1856
2204830,1858,1854,1855
2204840,1859,1851,1853
2204850,1858,1855,1855
2204860,1857,1850,1855
2204870,1858,1852,1853
2204880,1856,1853,1852
2204890,1857,1851,1853
2204900,1861,1851,1853
2204910,1856,1853,1851
2204920,1858,1851,1853
2204930,1856,1852,1854
2204940,1857,1849,1853
2204950,1858,1851,1851
2204960,1859,1851,1851
2204970,1859,1850,1852
2204980,1858,1851,1855
2204990,1858,1853,1854
2205000,1857,1854,1855
2205010,1857,1853,1852
2205020,1862,1854,1853
2205030,1862,1852,1851
2205040,1862,1853,1851
2205050,1862,1854,1854
2205060,1860,1854,1855
2205070,1863,1856,1856
2205080,1861,1853,1852
2205090,1865,1855,1856
2205100,1862,1854,1856
2205110,1864,1854,1856
2205120,1863,1853,1856
2205130,1861,1854,1852
2205140,1859,1851,1855
2205150,1861,1851,1854
2205160,1861,1851,1856
2205170,1863,1855,1855
2205180,1861,1851,1857
2205190,1863,1853,1854
2205200,1865,1857,1856
2205210,1868,1856,1856
2205220,1872,1858,1859
2205230,1872,1862,1861
2205240,1875,1865,1863
2205250,1883,1870,1866
2205260,1889,1874,1872
2205270,1894,1875,1875
2205280,1903,1879,1876
2205290,1905,1883,1879
2205300,1909,1888,1883
2205310,1911,1890,1888
2205320,1913,1886,1889
2205330,1915,1888,1893
2205340,1915,1887,1891
2205350,1913,1885,1891
2205360,1913,1886,1890
2205370,1910,1882,1887
2205380,1906,1881,1885
2205390,1904,1877,1887
2205400,1904,1876,1885
2205410,1898,1874,1881
2205420,1892,1872,1879
2205430,1887,1872,1877
2205440,1885,1870,1873
2205450,1878,1867,1872
2205460,1872,1865,1870
2205470,1871,1859,1870
2205480,1867,1860,1865
2205490,1863,1856,1863
2205500,1862,1853,1860
2205510,1858,1854,1857
2205520,1857,1851,1856
2205530,1857,1851,1853
2205540,1857,1850,1854
2205550,1855,1855,1855
2205560,1857,1853,1853
2205570,1858,1852,1854
2205580,1859,1851,1855
2205590,1857,1850,1855
2205600,1859,1851,1856
2205610,1865,1851,1856
2205620,1866,1855,1854
2205630,1862,1855,1856
2205640,1865,1853,1855
2205650,1865,1856,1854
2205660,1861,1853,1855
2205670,1863,1855,1855
2205680,1859,1853,1855
2205690,1858,1854,1854
2205700,1858,1852,1854
2205710,1857,1853,1851
2205720,1859,1850,1854
2205730,1857,1850,1855
2205740,1859,1854,1850
2205750,1858,1849,1853
2205760,1859,1847,1853
2205770,1857,1853,1853
2205780,1857,1849,1851
2205790,1858,1849,1854
2205800,1857,1850,1853
2205810,1858,1850,1853
2205820,1856,1852,1853
2205830,1859,1849,1849
2205840,1858,1853,1854
2205850,1858,1850,1856
2205860,1860,1852,1853
2205870,1859,1851,1855
2205880,1861,1850,1856
2205890,1861,1852,1853
2205900,1861,1853,1853
2205910,1859,1854,1852
2205920,1859,1851,1853
2205930,1861,1852,1856
2205940,1859,1855,1853
2205950,1861,1854,1854
2205960,1859,1854,1856
2205970,1862,1854,1855
2205980,1859,1854,1855
2205990,1861,1854,1854
2206000,1862,1854,1856
2206010,1861,1856,1856
2206020,1862,1853,1854
2206030,1863,1853,1855
2206040,1859,1853,1855
2206050,1860,1855,1856
2206060,1863,1855,1858
2206070,1866,1856,1858
2206080,1870,1860,1856
2206090,1872,1862,1860
2206100,1873,1866,1861
2206110,1885,1870,1869
2206120,1890,1873,1872
2206130,1898,1876,1872
2206140,1906,1882,1876
2206150,1909,1879,1879
2206160,1917,1886,1886
2206170,1920,1887,1886
2206180,1919,1888,1887
2206190,1920,1887,1888
2206200,1918,1888,1889
2206210,1918,1886,1890
2206220,1910,1886,1889
2206230,1910,1881,1887
2206240,1907,1877,1886
2206250,1904,1878,1885
2206260,1904,1874,1882
2206270,1897,1872,1882
2206280,1893,1872,1879
2206290,1886,1872,1873
2206300,1883,1867,1872
2206310,1878,1866,1871
2206320,1875,1859,1869
2206330,1872,1862,1869
2206340,1866,1857,1862
2206350,1862,1854,1857
2206360,1859,1854,1856
2206370,1856,1851,1856
2206380,1855,1846,1853
2206390,1856,1848,1853
2206400,1856,1847,1852
2206410,1855,1853,1852
2206420,1857,1850,1847
2206430,1856,1848,1855
2206440,1858,1851,1855
2206450,1859,1852,1854
2206460,1864,1853,1856
2206470,1863,1854,1852
2206480,1864,1856,1856
2206490,1867,1854,1857
2206500,1863,1856,1856
2206510,1863,1855,1856
2206520,1863,1853,1857
2206530,1863,1855,1855
2206540,1861,1855,1854
2206550,1858,1854,1856
2206560,1858,1850,1854
2206570,1856,1851,1855
2206580,1858,1854,1854
2206590,1856,1850,1854
2206600,1857,1853,1851
2206610,1855,1849,1850
2206620,1855,1850,1855
2206630,1856,1848,1853
2206640,1856,1853,1851
2206650,1855,1849,1855
2206660,1856,1851,1854
2206670,1857,1850,1851
2206680,1855,1848,1851
2206690,1857,1853,1854
2206700,1856,1846,1851
2206710,1856,1851,1855
2206720,1860,1851,1853
2206730,1858,1852,1855
2206740,1858,1851,1856
2206750,1859,1852,1856
2206760,1862,1856,1858
2206770,1858,1854,1856
2206780,1861,1853,1856
2206790,1862,1853,1861
2206800,1863,1853,1855
2206810,1859,1853,1855
2206820,1863,1853,1855
2206830,1861,1855,1856
2206840,1863,1855,1853
2206850,1863,1855,1856
2206860,1862,1855,1856
2206870,1863,1852,1856
2206880,1861,1852,1853
2206890,1863,1853,1855
2206900,1861,1853,1856
2206910,1859,1853,1858
2206920,1857,1854,1856
2206930,1858,1855,1857
2206940,1857,1853,1855
2206950,1862,1853,1855
2206960,1863,1857,1857
2206970,1867,1857,1857
2206980,1869,1863,1858
2206990,1876,1867,1861
2207000,1882,1870,1865
2207010,1891,1872,1871
2207020,1898,1877,1872
2207030,1904,1878,1873
2207040,1905,1879,1878
2207050,1915,1885,1883
2207060,1919,1885,1883
2207070,1919,1887,1887
2207080,1921,1889,1890
2207090,1922,1887,1890
2207100,1919,1887,1888
2207110,1918,1888,1891
2207120,1915,1883,1889
2207130,1911,1881,1887
2207140,1904,1878,1887
2207150,1905,1877,1882
2207160,1895,1872,1882
2207170,1891,1870,1878
2207180,1889,1872,1875
2207190,1886,1870,1875
2207200,1877,1864,1872
2207210,1873,1862,1871
2207220,1870,1861,1869
2207230,1869,1857,1867
2207240,1863,1854,1860
2207250,1857,1853,1857
2207260,1855,1851,1857
2207270,1854,1851,1857
2207280,1850,1845,1853
2207290,1853,1849,1850
2207300,1854,1849,1851
2207310,1857,1846,1852
2207320,1855,1851,1851
2207330,1855,1850,1855
2207340,1856,1851,1854
2207350,1859,1854,1854
2207360,1859,1854,1854
2207370,1858,1853,1855
2207380,1858,1856,1855
2207390,1859,1853,1857
2207400,1859,1853,1858
2207410,1862,1854,1858
2207420,1862,1854,1857
2207430,1858,1855,1854
2207440,1857,1851,1855
2207450,1858,1851,1851
2207460,1857,1851,1855
2207470,1856,1851,1851
2207480,1857,1853,1852
2207490,1857,1851,1851
2207500,1856,1851,1850
2207510,1856,1850,1849
2207520,1856,1853,1853
2207530,1856,1849,1851
2207540,1856,1850,1852
2207550,1853,1847,1855
2207560,1855,1849,1854
2207570,1856,1847,1852
2207580,1856,1850,1851
2207590,1857,1852,1847
2207600,1856,1851,1850
2207610,1856,1853,1854
2207620,1857,1853,1853
2207630,1855,1851,1853
2207640,1855,1853,1855
2207650,1859,1853,1851
2207660,1857,1851,1853
2207670,1859,1854,1856
2207680,1857,1854,1851
2207690,1854,1855,1854
2207700,1857,1853,1853
2207710,1858,1854,1856
2207720,1860,1857,1855
2207730,1861,1852,1854
2207740,1859,1851,1851
2207750,1858,1851,1854
2207760,1859,1853,1856
2207770,1861,1854,1854
2207780,1859,1851,1855
2207790,1860,1852,1855
2207800,1861,1854,1856
2207810,1858,1853,1858
2207820,1857,1853,1855
2207830,1859,1854,1854
2207840,1859,1854,1856
2207850,1859,1855,1857
2207860,1859,1856,1851
2207870,1863,1855,1856
2207880,1866,1856,1857
2207890,1867,1857,1856
2207900,1872,1862,1858
2207910,1873,1869,1865
2207920,1883,1871,1866
2207930,1887,1874,1869
2207940,1897,1879,1872
2207950,1903,1881,1883
2207960,1907,1879,1877
2207970,1911,1887,1883
2207980,1917,1887,1883
2207990,1919,1890,1886
2208000,1920,1887,1887
2208010,1916,1889,1887
2208020,1916,1888,1889
2208030,1911,1887,1887
2208040,1909,1885,1888
2208050,1905,1881,1886
2208060,1904,1877,1886
2208070,1901,1875,1881
2208080,1895,1872,1879
2208090,1894,1872,1875
2208100,1887,1870,1872
2208110,1882,1869,1872
2208120,1874,1866,1872
2208130,1872,1863,1869
2208140,1867,1860,1869
2208150,1865,1859,1865
2208160,1861,1854,1859
2208170,1857,1855,1861
2208180,1856,1850,1856
2208190,1855,1850,1855
2208200,1855,1849,1854
2208210,1851,1849,1854
2208220,1855,1847,1853
2208230,1855,1851,1856
2208240,1856,1850,1851
2208250,1856,1847,1852
2208260,1859,1853,1856
2208270,1860,1854,1856
2208280,1859,1851,1856
2208290,1859,1854,1858
2208300,1861,1854,1856
2208310,1865,1853,1856
2208320,1862,1853,1857
2208330,1862,1854,1858
2208340,1860,1854,1855
2208350,1861,1855,1854
2208360,1859,1852,1856
2208370,1861,1855,1854
2208380,1858,1853,1855
2208390,1859,1851,1851
2208400,1858,1850,1855
2208410,1858,1854,1856
2208420,1857,1855,1852
2208430,1857,1853,1853
2208440,1857,1851,1854
2208450,1856,1851,1855
2208460,1858,1854,1855
2208470,1858,1850,1853
2208480,1856,1851,1852
2208490,1856,1854,1854
2208500,1856,1852,1855
2208510,1862,1853,1855
2208520,1862,1850,1855
2208530,1856,1851,1857
2208540,1857,1851,1856
2208550,1858,1853,1851
2208560,1857,1855,1853
2208570,1857,1852,1856
2208580,1858,1855,1856
2208590,1861,1856,1856
2208600,1857,1850,1853
2208610,1856,1847,1854
2208620,1859,1851,1856
2208630,1861,1851,1855
2208640,1858,1850,1855
2208650,1859,1853,1853
2208660,1859,1851,1853
2208670,1859,1855,1856
2208680,1858,1854,1855
2208690,1858,1852,1855
2208700,1861,1853,1856
2208710,1859,1851,1854
2208720,1858,1851,1857
2208730,1859,1852,1854
2208740,1861,1855,1853
2208750,1859,1856,1856
2208760,1865,1856,1856
2208770,1869,1858,1857
2208780,1871,1860,1858
2208790,1874,1867,1861
2208800,1878,1867,1865
2208810,1889,1872,1865
2208820,1894,1874,1868
2208830,1900,1875,1872
2208840,1904,1881,1876
2208850,1913,1885,1881
2208860,1915,1886,1878
2208870,1917,1889,1883
2208880,1919,1883,1886
2208890,1921,1886,1885
2208900,1917,1885,1886
2208910,1916,1881,1886
2208920,1909,1883,1883
2208930,1909,1880,1881
2208940,1904,1876,1879
2208950,1904,1873,1877
2208960,1894,1872,1875
2208970,1891,1870,1874
2208980,1885,1871,1875
2208990,1883,1866,1872
2209000,1877,1867,1871
2209010,1872,1863,1869
2209020,1872,1861,1865
2209030,1862,1857,1863
2209040,1861,1851,1857
2209050,1859,1853,1857
2209060,1855,1850,1855
2209070,1852,1851,1855
2209080,1852,1850,1854
2209090,1853,1846,1853
2209100,1854,1853,1855
2209110,1855,1853,1854
2209120,1855,1851,1855
2209130,1857,1853,1853
2209140,1857,1853,1853
2209150,1859,1854,1855
2209160,1857,1855,1856
2209170,1858,1856,1855
2209180,1859,1855,1856
2209190,1862,1856,1853
2209200,1858,1855,1856
2209210,1859,1856,1855
2209220,1858,1853,1857
2209230,1860,1851,1856
2209240,1861,1851,1855
2209250,1859,1851,1853
2209260,1857,1853,1856
2209270,1858,1853,1856
2209280,1857,1851,1855
2209290,1857,1852,1855
2209300,1856,1852,1856
2209310,1856,1849,1853
2209320,1855,1851,1852
2209330,1856,1851,1853
2209340,1856,1853,1851
2209350,1855,1853,1854
2209360,1856,1851,1854
2209370,1857,1853,1854
2209380,1856,1850,1855
2209390,1855,1849,1853
2209400,1857,1853,1855
2209410,1855,1853,1856
2209420,1859,1855,1856
2209430,1857,1854,1859
2209440,1857,1850,1856
2209450,1858,1853,1856
2209460,1859,1853,1856
2209470,1860,1855,1857
2209480,1859,1853,1851
2209490,1858,1853,1854
2209500,1862,1853,1856
2209510,1859,1855,1856
2209520,1861,1857,1857
2209530,1862,1852,1857
2209540,1860,1851,1854
2209550,1861,1856,1855
2209560,1861,1854,1857
2209570,1860,1853,1855
2209580,1861,1854,1854
2209590,1862,1854,1855
2209600,1859,1852,1856
2209610,1859,1853,1855
2209620,1861,1853,1855
2209630,1861,1853,1855
2209640,1859,1853,1858
2209650,1862,1853,1857
2209660,1863,1857,1860
2209670,1869,1858,1858
2209680,1871,1862,1859
2209690,1878,1867,1864
2209700,1883,1870,1867
2209710,1891,1872,1868
2209720,1893,1875,1871
2209730,1904,1877,1872
2209740,1906,1885,1878
2209750,1909,1879,1877
2209760,1911,1886,1882
2209770,1917,1883,1883
2209780,1916,1885,1878
2209790,1914,1881,1883
2209800,1913,1882,1886
2209810,1910,1880,1884
2209820,1906,1879,1884
2209830,1903,1874,1879
2209840,1903,1873,1879
2209850,1899,1873,1872
2209860,1891,1872,1874
2209870,1889,1868,1872
2209880,1883,1868,1871
2209890,1879,1867,1869
2209900,1874,1861,1866
2209910,1872,1858,1863
2209920,1870,1858,1861
2209930,1862,1851,1859
2209940,1859,1849,1856
2209950,1858,1851,1856
2209960,1856,1856,1856
2209970,1855,1855,1850
2209980,1854,1852,1856
2209990,1855,1847,1849
2210000,1855,1853,1851
2210010,1858,1855,1855
2210020,1856,1854,1849
2210030,1860,1851,1854
2210040,1861,1853,1855
2210050,1862,1854,1856
2210060,1862,1854,1856
2210070,1862,1855,1857
2210080,1863,1856,1856
2210090,1863,1856,1857
2210100,1861,1853,1856
2210110,1867,1855,1857
2210120,1862,1855,1856
2210130,1859,1852,1856
2210140,1861,1853,1857
2210150,1859,1853,1854
2210160,1856,1853,1856
2210170,1862,1852,1855
2210180,1862,1851,1853
2210190,1857,1853,1854
2210200,1857,1851,1856
2210210,1856,1852,1855
2210220,1856,1853,1855
2210230,1856,1849,1855
2210240,1861,1853,1856
2210250,1859,1853,1856
2210260,1857,1849,1854
2210270,1857,1854,1853
2210280,1859,1850,1856
2210290,1859,1847,1854
2210300,1861,1851,1853
2210310,1857,1853,1853
2210320,1857,1850,1855
2210330,1860,1851,1854
2210340,1859,1851,1853
2210350,1861,1853,1854
2210360,1856,1856,1857
2210370,1861,1856,1857
2210380,1863,1855,1856
2210390,1861,1855,1854
2210400,1861,1853,1855
2210410,1862,1856,1857
2210420,1861,1856,1856
2210430,1859,1855,1857
2210440,1862,1856,1859
2210450,1863,1855,1856
2210460,1863,1855,1855
2210470,1863,1853,1856
2210480,1863,1856,1855
2210490,1858,1852,1853
2210500,1863,1852,1857
2210510,1861,1851,1854
2210520,1857,1855,1854
2210530,1861,1852,1856
2210540,1860,1856,1858
2210550,1867,1856,1857
2210560,1867,1858,1856
2210570,1867,1860,1862
2210580,1872,1866,1859
2210590,1879,1868,1862
2210600,1887,1872,1867
2210610,1891,1872,1869
2210620,1901,1876,1872
2210630,1903,1878,1874
2210640,1907,1881,1874
2210650,1911,1883,1877
2210660,1913,1887,1882
2210670,1911,1886,1883
2210680,1910,1884,1883
2210690,1911,1885,1882
2210700,1908,1878,1878
2210710,1904,1876,1877
2210720,1904,1872,1877
2210730,1901,1872,1875
2210740,1895,1872,1875
2210750,1892,1872,1875
2210760,1885,1869,1872
2210770,1883,1868,1869
2210780,1875,1868,1869
2210790,1872,1862,1865
2210800,1870,1861,1866
2210810,1866,1857,1861
2210820,1861,1856,1858
2210830,1859,1855,1857
2210840,1856,1853,1857
2210850,1855,1850,1856
2210860,1855,1853,1856
2210870,1853,1851,1855
2210880,1854,1854,1856
2210890,1856,1853,1853
2210900,1856,1850,1856
2210910,1856,1853,1855
2210920,1860,1853,1855
2210930,1858,1856,1856
2210940,1863,1856,1856
2210950,1859,1855,1857
2210960,1862,1856,1856
2210970,1862,1855,1858
2210980,1866,1856,1858
2210990,1866,1853,1857
2211000,1862,1855,1856
2211010,1863,1853,1857
2211020,1861,1854,1854
2211030,1863,1850,1856
2211040,1859,1853,1855
2211050,1859,1849,1854
2211060,1856,1853,1856
2211070,1859,1851,1855
2211080,1856,1850,1856
2211090,1856,1850,1851
2211100,1856,1851,1851
2211110,1856,1850,1855
2211120,1856,1849,1854
2211130,1858,1851,1855
2211140,1860,1854,1855
2211150,1858,1853,1856
2211160,1857,1855,1855
2211170,1859,1853,1856
2211180,1856,1853,1855
2211190,1857,1853,1854
2211200,1857,1856,1856
2211210,1858,1851,1856
2211220,1860,1853,1857
2211230,1861,1854,1856
2211240,1861,1855,1857
2211250,1862,1854,1856
2211260,1862,1856,1855
2211270,1865,1855,1856
2211280,1862,1857,1856
2211290,1862,1855,1858
2211300,1862,1856,1857
2211310,1863,1857,1857
2211320,1866,1855,1857
2211330,1862,1856,1857
2211340,1866,1852,1856
2211350,1863,1855,1857
2211360,1862,1856,1857
2211370,1861,1855,1859
2211380,1865,1855,1853
2211390,1862,1856,1856
2211400,1867,1855,1856
2211410,1867,1860,1858
2211420,1872,1861,1858
2211430,1877,1865,1863
2211440,1883,1869,1869
2211450,1888,1872,1871
2211460,1898,1873,1872
2211470,1903,1877,1874
2211480,1904,1882,1878
2211490,1911,1885,1879
2211500,1913,1884,1886
2211510,1917,1886,1884
2211520,1918,1884,1883
2211530,1916,1886,1884
2211540,1913,1884,1883
2211550,1911,1882,1882
2211560,1909,1879,1882
2211570,1905,1877,1875
2211580,1903,1874,1877
2211590,1898,1872,1874
2211600,1894,1872,1875
2211610,1890,1872,1872
2211620,1881,1867,1872
2211630,1876,1866,1872
2211640,1874,1862,1869
2211650,1871,1860,1866
2211660,1868,1858,1861
2211670,1863,1856,1859
2211680,1858,1854,1858
2211690,1857,1854,1856
2211700,1854,1851,1856
2211710,1853,1853,1853
2211720,1854,1851,1853
2211730,1853,1847,1854
2211740,1855,1851,1852
2211750,1856,1849,1855
2211760,1855,1851,1853
2211770,1857,1852,1855
2211780,1858,1853,1855
2211790,1858,1852,1855
2211800,1862,1854,1855
2211810,1859,1854,1857
2211820,1863,1855,1853
2211830,1862,1853,1857
2211840,1862,1851,1857
2211850,1862,1853,1860
2211860,1859,1854,1857
2211870,1861,1853,1856
2211880,1857,1851,1855
2211890,1857,1850,1857
2211900,1856,1852,1857
2211910,1856,1852,1856
2211920,1856,1849,1857
2211930,1858,1851,1856
2211940,1856,1851,1854
2211950,1854,1851,1855
2211960,1854,1852,1856
2211970,1857,1851,1854
2211980,1856,1851,1856
2211990,1856,1852,1856
2212000,1857,1852,1855
2212010,1856,1853,1854
2212020,1856,1853,1856
2212030,1857,1854,1855
2212040,1857,1850,1854
2212050,1859,1851,1856
2212060,1859,1853,1856
2212070,1859,1853,1857
2212080,1858,1854,1856
2212090,1859,1854,1855
2212100,1856,1852,1856
2212110,1862,1854,1856
2212120,1861,1853,1855
2212130,1861,1856,1857
2212140,1858,1855,1855
2212150,1859,1854,1856
2212160,1861,1853,1855
2212170,1861,1857,1857
2212180,1859,1853,1857
2212190,1862,1855,1856
2212200,1865,1856,1857
2212210,1864,1855,1859
2212220,1861,1855,1856
2212230,1860,1855,1856
2212240,1860,1855,1857
2212250,1863,1856,1857
2212260,1865,1856,1856
2212270,1867,1857,1858
2212280,1871,1860,1857
2212290,1873,1861,1862
2212300,1876,1868,1866
2212310,1885,1872,1867
2212320,1896,1872,1869
2212330,1902,1878,1872
2212340,1904,1882,1874
2212350,1907,1882,1877
2212360,1913,1886,1883
2212370,1915,1886,1883
2212380,1915,1889,1887
2212390,1919,1887,1887
2212400,1917,1884,1886
2212410,1915,1883,1886
2212420,1911,1885,1885
2212430,1910,1881,1883
2212440,1904,1877,1881
2212450,1901,1878,1880
2212460,1899,1874,1877
2212470,1898,1872,1877
2212480,1890,1872,1873
2212490,1886,1869,1872
2212500,1878,1867,1872
2212510,1875,1867,1870
2212520,1872,1859,1866
2212530,1869,1858,1863
2212540,1863,1856,1866
2212550,1859,1856,1862
2212560,1857,1855,1858
2212570,1855,1854,1856
2212580,1854,1855,1856
2212590,1850,1850,1855
2212600,1853,1850,1854
2212610,1853,1850,1854
2212620,1854,1851,1854
2212630,1855,1852,1854
2212640,1857,1852,1856
2212650,1858,1854,1856
2212660,1859,1854,1857
2212670,1863,1855,1856
2212680,1861,1854,1858
2212690,1863,1855,1858
2212700,1865,1854,1857
2212710,1864,1854,1857
2212720,1859,1851,1854
2212730,1863,1853,1857
2212740,1861,1854,1856
2212750,1861,1855,1857
2212760,1860,1853,1858
2212770,1860,1852,1856
2212780,1858,1851,1856
2212790,1858,1853,1856
2212800,1856,1853,1857
2212810,1857,1849,1856
2212820,1855,1847,1856
2212830,1856,1849,1853
2212840,1856,1850,1856
2212850,1859,1851,1855
2212860,1857,1851,1855
2212870,1858,1854,1855
2212880,1857,1853,1855
2212890,1857,1851,1855
2212900,1858,1853,1855
2212910,1857,1854,1853
2212920,1859,1855,1856
2212930,1858,1853,1855
2212940,1857,1854,1853
2212950,1857,1855,1855
2212960,1860,1855,1860
2212970,1861,1856,1856
2212980,1858,1856,1856
2212990,1859,1855,1855
2213000,1859,1853,1855
2213010,1860,1850,1857
2213020,1865,1853,1856
2213030,1862,1854,1857
2213040,1862,1856,1858
2213050,1858,1853,1856
2213060,1862,1853,1858
2213070,1861,1856,1854
2213080,1859,1855,1858
2213090,1862,1856,1858
2213100,1866,1855,1857
2213110,1861,1854,1853
2213120,1862,1857,1857
2213130,1863,1858,1858
2213140,1863,1858,1857
2213150,1869,1860,1858
2213160,1872,1861,1858
2213170,1879,1863,1863
2213180,1881,1871,1867
2213190,1887,1872,1871
2213200,1901,1873,1874
2213210,1902,1879,1875
2213220,1909,1885,1878
2213230,1915,1887,1884
2213240,1919,1890,1885
2213250,1919,1889,1888
2213260,1920,1891,1887
2213270,1920,1889,1888
2213280,1920,1888,1889
2213290,1918,1889,1889
2213300,1914,1881,1887
2213310,1907,1878,1887
2213320,1906,1877,1883
2213330,1902,1875,1882
2213340,1901,1873,1882
2213350,1890,1872,1879
2213360,1887,1869,1875
2213370,1886,1872,1873
2213380,1879,1869,1871
2213390,1874,1863,1867
2213400,1871,1862,1867
2213410,1869,1859,1866
2213420,1861,1856,1862
2213430,1863,1853,1860
2213440,1856,1854,1858
2213450,1856,1851,1858
2213460,1855,1851,1857
2213470,1856,1849,1852
2213480,1855,1850,1856
2213490,1856,1851,1854
2213500,1850,1852,1854
2213510,1862,1851,1855
2213520,1857,1851,1851
2213530,1858,1854,1856
2213540,1857,1852,1855
2213550,1858,1854,1856
2213560,1859,1854,1854
2213570,1860,1852,1856
2213580,1859,1856,1859
2213590,1862,1855,1857
2213600,1860,1855,1855
2213610,1860,1854,1857
2213620,1861,1852,1856
2213630,1858,1852,1856
2213640,1859,1853,1855
2213650,1857,1853,1857
2213660,1856,1851,1855
2213670,1856,1852,1856
2213680,1856,1851,1857
2213690,1856,1851,1855
2213700,1856,1849,1855
2213710,1857,1851,1858
2213720,1855,1851,1855
2213730,1857,1849,1855
2213740,1856,1847,1855
2213750,1856,1851,1855
2213760,1856,1850,1854
2213770,1857,1851,1853
2213780,1856,1851,1855
2213790,1858,1851,1856
2213800,1858,1853,1855
2213810,1856,1851,1856
2213820,1859,1851,1855
2213830,1859,1853,1856
2213840,1859,1851,1855
2213850,1858,1851,1857
2213860,1861,1851,1856
2213870,1861,1854,1856
2213880,1859,1854,1857
2213890,1859,1852,1857
2213900,1856,1855,1856
2213910,1859,1853,1856
2213920,1859,1851,1855
2213930,1859,1852,1856
2213940,1863,1853,1856
2213950,1861,1851,1855
2213960,1859,1851,1857
2213970,1861,1853,1857
2213980,1863,1851,1854
2213990,1862,1851,1857
2214000,1863,1856,1856
2214010,1861,1855,1856
2214020,1866,1856,1856
2214030,1868,1858,1859
2214040,1873,1863,1861
2214050,1877,1867,1866
2214060,1889,1871,1865
2214070,1895,1873,1871
2214080,1901,1875,1872
2214090,1904,1879,1875
2214100,1915,1881,1877
2214110,1917,1885,1883
2214120,1920,1887,1882
2214130,1920,1885,1886
2214140,1919,1885,1886
2214150,1922,1886,1886
2214160,1921,1881,1886
2214170,1917,1878,1886
2214180,1913,1877,1883
2214190,1905,1875,1885
2214200,1903,1873,1878
2214210,1902,1873,1879
2214220,1897,1872,1876
2214230,1890,1870,1873
2214240,1885,1871,1872
2214250,1878,1867,1872
2214260,1874,1863,1870
2214270,1871,1861,1867
2214280,1868,1857,1864
2214290,1863,1856,1865
2214300,1857,1851,1861
2214310,1855,1851,1857
2214320,1851,1849,1855
2214330,1853,1846,1856
2214340,1851,1850,1852
2214350,1851,1849,1854
2214360,1854,1850,1850
2214370,1853,1847,1851
2214380,1854,1851,1852
2214390,1854,1851,1853
2214400,1857,1851,1854
2214410,1856,1850,1856
2214420,1856,1853,1853
2214430,1859,1852,1856
2214440,1859,1853,1855
2214450,1860,1855,1857
2214460,1862,1854,1855
2214470,1861,1854,1855
2214480,1859,1852,1856
2214490,1856,1851,1853
2214500,1859,1850,1856
2214510,1859,1851,1856
2214520,1858,1855,1856
2214530,1857,1852,1855
2214540,1856,1850,1857
2214550,1856,1851,1855
2214560,1857,1850,1857
2214570,1857,1853,1855
2214580,1856,1849,1855
2214590,1856,1851,1856
2214600,1854,1853,1855
2214610,1855,1851,1855
2214620,1854,1850,1855
2214630,1856,1851,1855
2214640,1857,1853,1855
2214650,1856,1852,1856
2214660,1856,1850,1855
2214670,1856,1850,1856
2214680,1855,1852,1855
2214690,1856,1852,1854
2214700,1858,1855,1855
2214710,1857,1854,1855
2214720,1857,1853,1856
2214730,1859,1847,1856
2214740,1860,1855,1855
2214750,1861,1853,1855
2214760,1857,1854,1854
2214770,1862,1854,1857
2214780,1861,1855,1855
2214790,1858,1854,1854
2214800,1860,1854,1856
2214810,1861,1853,1855
2214820,1859,1854,1857
2214830,1859,1852,1856
2214840,1857,1854,1856
2214850,1862,1855,1856
2214860,1858,1853,1857
2214870,1859,1854,1854
2214880,1859,1855,1855
2214890,1859,1855,1856
2214900,1859,1856,1855
2214910,1863,1856,1856
2214920,1866,1857,1859
2214930,1871,1861,1856
2214940,1872,1863,1861
2214950,1877,1868,1865
2214960,1887,1872,1866
2214970,1891,1873,1870
2214980,1900,1875,1875
2214990,1904,1882,1873
2215000,1909,1885,1877
2215010,1910,1884,1882
2215020,1918,1887,1878
2215030,1915,1886,1883
2215040,1917,1887,1883
2215050,1915,1883,1883
2215060,1913,1882,1884
2215070,1909,1879,1885
2215080,1905,1875,1882
2215090,1904,1873,1879
2215100,1903,1872,1877
2215110,1892,1870,1875
2215120,1891,1870,1874
2215130,1885,1869,1872
2215140,1890,1865,1871
2215150,1873,1861,1868
2215160,1872,1857,1867
2215170,1871,1857,1862
2215180,1865,1857,1863
2215190,1862,1856,1859
2215200,1856,1849,1857
2215210,1856,1851,1857
2215220,1855,1850,1856
2215230,1855,1853,1855
2215240,1853,1853,1851
2215250,1851,1850,1855
2215260,1856,1853,1854
2215270,1855,1851,1853
2215280,1860,1851,1855
2215290,1857,1853,1855
2215300,1861,1856,1855
2215310,1861,1853,1858
2215320,1865,1856,1857
2215330,1862,1854,1856
2215340,1863,1856,1857
2215350,1863,1855,1860
2215360,1862,1856,1857
2215370,1861,1855,1856
2215380,1862,1854,1856
2215390,1861,1853,1855
2215400,1858,1855,1856
2215410,1858,1854,1856
2215420,1862,1854,1856
2215430,1857,1853,1856
2215440,1858,1854,1854
2215450,1858,1849,1857
2215460,1856,1854,1854
2215470,1859,1851,1853
2215480,1856,1852,1855
2215490,1856,1849,1854
2215500,1857,1851,1856
2215510,1857,1851,1854
2215520,1856,1851,1851
2215530,1858,1854,1856
2215540,1857,1854,1856
2215550,1859,1855,1854
2215560,1857,1853,1857
2215570,1862,1853,1855
2215580,1859,1851,1857
2215590,1858,1855,1858
2215600,1860,1857,1856
2215610,1862,1855,1856
2215620,1861,1856,1857
2215630,1861,1853,1856
2215640,1862,1853,1856
2215650,1860,1851,1856
2215660,1859,1855,1856
2215670,1859,1854,1856
2215680,1862,1852,1857
2215690,1862,1854,1856
2215700,1859,1854,1856
2215710,1862,1853,1856
2215720,1859,1853,1856
2215730,1863,1855,1856
2215740,1862,1855,1855
2215750,1869,1856,1859
2215760,1869,1858,1856
2215770,1872,1862,1859
2215780,1877,1868,1864
2215790,1883,1869,1867
2215800,1888,1872,1867
2215810,1898,1877,1872
2215820,1904,1881,1873
2215830,1905,1883,1878
2215840,1911,1884,1883
2215850,1911,1889,1879
2215860,1915,1885,1879
2215870,1918,1887,1885
2215880,1917,1887,1886
2215890,1914,1883,1885
2215900,1910,1882,1883
2215910,1908,1878,1882
2215920,1904,1877,1879
2215930,1904,1873,1876
2215940,1901,1872,1875
2215950,1894,1872,1877
2215960,1885,1870,1872
2215970,1885,1866,1872
2215980,1879,1869,1871
2215990,1874,1860,1867
2216000,1872,1856,1866
2216010,1867,1856,1859
2216020,1861,1854,1863
2216030,1858,1854,1856
2216040,1855,1853,1854
2216050,1856,1851,1853
2216060,1855,1849,1855
2216070,1853,1850,1855
2216080,1854,1849,1851
2216090,1856,1851,1853
2216100,1856,1853,1856
2216110,1857,1854,1855
2216120,1859,1852,1856
2216130,1861,1853,1857
2216140,1862,1851,1854
2216150,1863,1852,1856
2216160,1859,1855,1858
2216170,1862,1855,1856
2216180,1865,1857,1856
2216190,1862,1853,1858
2216200,1863,1853,1856
2216210,1862,1849,1856
2216220,1862,1851,1856
2216230,1858,1849,1858
2216240,1861,1851,1855
2216250,1859,1846,1855
2216260,1857,1850,1856
2216270,1856,1849,1856
2216280,1859,1850,1856
2216290,1857,1847,1856
2216300,1856,1847,1854
2216310,1856,1847,1854
2216320,1857,1850,1856
2216330,1857,1850,1853
2216340,1859,1852,1855
2216350,1856,1850,1854
2216360,1857,1850,1854
2216370,1858,1851,1855
2216380,1857,1849,1856
2216390,1858,1853,1856
2216400,1862,1855,1855
2216410,1858,1853,1855
2216420,1862,1855,1855
2216430,1861,1855,1856
2216440,1860,1856,1857
2216450,1858,1853,1857
2216460,1861,1854,1856
2216470,1859,1853,1858
2216480,1865,1855,1857
2216490,1860,1857,1855
2216500,1858,1855,1856
2216510,1860,1856,1857
2216520,1857,1854,1858
2216530,1859,1853,1856
2216540,1856,1855,1857
2216550,1859,1853,1854
2216560,1861,1853,1856
2216570,1863,1856,1856
2216580,1865,1857,1856
2216590,1873,1858,1856
2216600,1872,1859,1860
2216610,1873,1866,1862
2216620,1879,1869,1862
2216630,1887,1872,1865
2216640,1893,1873,1870
2216650,1902,1878,1872
2216660,1904,1886,1875
2216670,1911,1887,1877
2216680,1915,1889,1883
2216690,1918,1889,1885
2216700,1915,1889,1883
2216710,1922,1888,1888
2216720,1921,1887,1885
2216730,1919,1885,1887
2216740,1915,1887,1886
2216750,1910,1882,1883
2216760,1911,1883,1883
2216770,1904,1878,1878
2216780,1899,1875,1875
2216790,1895,1873,1872
2216800,1891,1872,1872
2216810,1885,1872,1872
2216820,1883,1866,1871
2216830,1877,1869,1870
2216840,1872,1862,1867
2216850,1872,1858,1865
2216860,1867,1855,1861
2216870,1859,1854,1858
2216880,1857,1855,1857
2216890,1856,1851,1856
2216900,1854,1850,1854
2216910,1852,1851,1853
2216920,1850,1851,1851
2216930,1851,1846,1854
2216940,1854,1847,1855
2216950,1851,1851,1857
2216960,1855,1847,1854
2216970,1858,1853,1856
2216980,1856,1847,1857
2216990,1861,1853,1856
