timestamp_ms_device,ppg_finger1,ppg_finger2,ppg_finger3
2416820,1861,1847,1851
2416830,1865,1855,1852
2416840,1861,1855,1853
2416850,1861,1856,1850
2416860,1863,1857,1851
2416870,1869,1858,1853
2416880,1867,1856,1855
2416890,1869,1856,1856
2416900,1872,1858,1857
2416910,1871,1857,1859
2416920,1872,1862,1863
2416930,1872,1858,1866
2416940,1872,1862,1862
2416950,1872,1860,1865
2416960,1872,1862,1865
2416970,1873,1862,1867
2416980,1872,1861,1866
2416990,1871,1862,1862
2417000,1871,1861,1861
2417010,1868,1858,1862
2417020,1867,1856,1857
2417030,1866,1857,1856
2417040,1861,1855,1854
2417050,1861,1856,1855
2417060,1861,1855,1850
2417070,1858,1856,1850
2417080,1859,1853,1849
2417090,1859,1853,1845
2417100,1857,1849,1842
2417110,1859,1852,1846
2417120,1859,1851,1847
2417130,1861,1853,1847
2417140,1858,1850,1843
2417150,1860,1853,1846
2417160,1862,1855,1850
2417170,1863,1853,1847
2417180,1862,1854,1847
2417190,1862,1854,1851
2417200,1867,1855,1849
2417210,1865,1853,1851
2417220,1861,1855,1855
2417230,1861,1851,1850
2417240,1860,1855,1852
250,1863,1854,1846
2417260,1862,1845,1850
2417270,1859,1853,1845
2417280,1862,1855,1847
2417290,1859,1855,1849
2417300,1862,1863,1850
2417310,1866,1857,1853
2417320,1867,1857,1858
2417330,1872,1855,1860
2417340,1875,1865,1872
2417350,1883,1867,1873
2417360,1886,1872,1877
2417370,1889,1872,1883
2417380,1890,1878,1885
2417390,1895,1874,1888
2417400,1894,1877,1889
2417410,1894,1879,1887
2417420,1887,1876,1883
2417430,1888,1872,1879
2417440,1881,1872,1873
2417450,1877,1870,1872
2417460,1877,1867,1865
2417470,1874,1866,1863
2417480,1872,1861,1856
2417490,1869,1858,1857
2417500,1866,1856,1854
2417510,1867,1858,1847
2417520,1863,1855,1850
2417530,1860,1853,1846
2417540,1862,1855,1846
2417550,1863,1851,1846
2417560,1865,1851,1850
2417570,1860,1856,1851
2417580,1865,1854,1851
2417590,1867,1855,1856
2417600,1864,1856,1855
2417610,1863,1858,1854
2417620,1866,1857,1856
2417630,1869,1858,1856
2417640,1869,1857,1857
2417650,1871,1858,1859
2417660,1867,1856,1859
2417670,1871,1855,1856
2417680,1870,1857,1857
2417690,1870,1857,1854
2417700,1869,1855,1856
2417710,1867,1855,1857
2417720,1869,1856,1857
2417730,1867,1855,1854
2417740,1868,1855,1854
2417750,1866,1855,1851
2417760,1870,1855,1857
2417770,1867,1855,1854
2417780,1862,1856,1856
2417790,1867,1856,1855
2417800,1867,1858,1856
2417810,1865,1857,1857
2417820,1865,1856,1854
2417830,1867,1856,1858
2417840,1867,1857,1855
2417850,1866,1856,1855
2417860,1862,1855,1855
2417870,1866,1857,1856
2417880,1861,1856,1853
2417890,1863,1855,1854
2417900,1863,1854,1853
2417910,1866,1856,1856
2417920,1865,1855,1855
2417930,1862,1854,1854
2417940,1863,1855,1851
2417950,1862,1854,1852
2417960,1862,1851,1849
2417970,1862,1853,1852
2417980,1861,1855,1850
2417990,1865,1855,1851
2418000,1863,1853,1850
2418010,1865,1854,1851
2418020,1861,1854,1851
2418030,1866,1854,1853
2418040,1867,1855,1855
2418050,1872,1860,1860
2418060,1872,1864,1861
2418070,1873,1865,1867
2418080,1879,1870,1872
2418090,1882,1871,1875
2418100,1883,1873,1882
2418110,1889,1874,1882
2418120,1891,1872,1882
2418130,1890,1873,1885
2418140,1889,1875,1887
2418150,1889,1875,1884
2418160,1889,1872,1883
2418170,1885,1871,1878
2418180,1879,1868,1873
2418190,1877,1866,1872
2418200,1873,1863,1870
2418210,1871,1859,1863
2418220,1868,1858,1859
2418230,1863,1857,1857
2418240,1863,1858,1855
2418250,1861,1855,1854
2418260,1859,1852,1851
2418270,1857,1852,1847
2418280,1858,1852,1847
2418290,1859,1854,1850
2418300,1856,1855,1847
2418310,1858,1851,1850
2418320,1858,1853,1850
2418330,1864,1851,1852
2418340,1862,1856,1851
2418350,1865,1858,1855
2418360,1867,1857,1854
2418370,1867,1857,1857
2418380,1870,1859,1857
2418390,1870,1858,1861
2418400,1869,1861,1860
2418410,1872,1857,1862
2418420,1871,1857,1857
2418430,1869,1857,1858
2418440,1871,1859,1861
2418450,1870,1858,1861
2418460,1871,1857,1862
2418470,1867,1858,1859
2418480,1871,1857,1856
2418490,1871,1858,1856
2418500,1867,1856,1856
2418510,1866,1855,1856
2418520,1866,1855,1855
2418530,1867,1857,1854
2418540,1862,1855,1854
2418550,1863,1855,1856
2418560,1863,1855,1855
2418570,1863,1855,1854
2418580,1866,1855,1850
2418590,1865,1854,1852
2418600,1865,1856,1853
2418610,1862,1855,1853
2418620,1862,1855,1850
2418630,1863,1854,1853
2418640,1865,1851,1854
2418650,1864,1851,1855
2418660,1859,1852,1854
2418670,1860,1853,1854
2418680,1862,1853,1856
2418690,1863,1857,1856
2418700,1864,1856,1852
2418710,1862,1854,1855
2418720,1861,1853,1855
2418730,1863,1854,1856
2418740,1863,1855,1856
2418750,1871,1856,1858
2418760,1871,1862,1861
2418770,1873,1859,1865
2418780,1872,1865,1870
2418790,1879,1866,1873
2418800,1885,1871,1879
2418810,1887,1872,1883
2418820,1891,1873,1883
2418830,1894,1874,1889
2418840,1895,1877,1889
2418850,1897,1877,1889
2418860,1895,1873,1890
2418870,1894,1874,1886
2418880,1892,1877,1886
2418890,1890,1873,1883
2418900,1888,1873,1883
2418910,1882,1872,1874
2418920,1881,1870,1872
2418930,1873,1863,1872
2418940,1872,1866,1866
2418950,1872,1859,1862
2418960,1866,1856,1861
2418970,1864,1856,1856
2418980,1863,1855,1855
2418990,1862,1854,1855
2419000,1862,1852,1853
2419010,1862,1853,1853
2419020,1859,1853,1853
2419030,1856,1850,1851
2419040,1861,1853,1851
2419050,1860,1854,1854
2419060,1861,1855,1856
2419070,1862,1855,1856
2419080,1865,1856,1857
2419090,1867,1856,1857
2419100,1866,1859,1856
2419110,1871,1861,1859
2419120,1868,1858,1861
2419130,1870,1859,1862
2419140,1869,1859,1863
2419150,1869,1862,1859
2419160,1869,1858,1860
2419170,1870,1859,1860
2419180,1870,1857,1861
2419190,1871,1859,1858
2419200,1867,1857,1858
2419210,1868,1855,1859
2419220,1868,1856,1856
2419230,1866,1856,1858
2419240,1865,1857,1855
2419250,1863,1855,1854
2419260,1863,1856,1856
2419270,1860,1856,1856
2419280,1861,1855,1852
2419290,1862,1854,1853
2419300,1860,1855,1854
2419310,1862,1854,1854
2419320,1859,1851,1853
2419330,1859,1855,1851
2419340,1861,1856,1849
2419350,1861,1854,1853
2419360,1860,1855,1851
2419370,1861,1856,1853
2419380,1862,1857,1852
2419390,1865,1854,1853
2419400,1867,1855,1852
2419410,1867,1855,1855
2419420,1869,1858,1857
2419430,1872,1857,1860
2419440,1876,1861,1863
2419450,1876,1868,1871
2419460,1885,1871,1872
2419470,1886,1871,1877
2419480,1891,1872,1877
2419490,1899,1873,1883
2419500,1898,1875,1887
2419510,1899,1875,1888
2419520,1894,1879,1888
2419530,1899,1877,1889
2419540,1895,1875,1887
2419550,1892,1876,1885
2419560,1889,1873,1882
2419570,1885,1872,1877
2419580,1881,1870,1872
2419590,1874,1869,1871
2419600,1872,1863,1867
2419610,1871,1860,1865
2419620,1868,1861,1861
2419630,1864,1857,1857
2419640,1859,1856,1856
2419650,1861,1854,1853
2419660,1859,1853,1853
2419670,1857,1854,1851
2419680,1856,1850,1851
2419690,1857,1853,1853
2419700,1856,1850,1849
2419710,1856,1853,1851
2419720,1859,1855,1851
2419730,1861,1853,1855
2419740,1862,1856,1852
2419750,1863,1856,1855
2419760,1867,1856,1857
2419770,1867,1857,1857
2419780,1870,1856,1857
2419790,1870,1859,1859
2419800,1869,1857,1858
2419810,1870,1857,1862
2419820,1872,1858,1859
2419830,1872,1857,1859
2419840,1870,1857,1859
2419850,1868,1861,1862
2419860,1869,1856,1856
2419870,1867,1855,1857
2419880,1867,1856,1856
2419890,1863,1856,1856
2419900,1866,1856,1853
2419910,1866,1853,1855
2419920,1863,1854,1853
2419930,1865,1851,1852
2419940,1858,1856,1854
2419950,1861,1855,1853
2419960,1862,1853,1854
2419970,1866,1856,1851
2419980,1863,1855,1855
2419990,1863,1854,1854
2420000,1861,1854,1851
2420010,1866,1852,1855
2420020,1861,1855,1855
2420030,1861,1855,1854
2420040,1865,1857,1856
2420050,1867,1857,1854
2420060,1872,1858,1859
2420070,1872,1864,1861
2420080,1877,1863,1865
2420090,1882,1866,1872
2420100,1887,1871,1875
2420110,1895,1873,1883
2420120,1899,1875,1889
2420130,1902,1877,1887
2420140,1902,1878,1895
2420150,1902,1878,1893
2420160,1904,1879,1891
2420170,1901,1878,1890
2420180,1901,1879,1889
2420190,1895,1879,1886
2420200,1891,1875,1883
2420210,1879,1872,1879
2420220,1883,1871,1875
2420230,1878,1867,1873
2420240,1872,1863,1871
2420250,1870,1861,1869
2420260,1866,1858,1867
2420270,1865,1856,1857
2420280,1863,1853,1855
2420290,1859,1857,1857
2420300,1856,1851,1856
2420310,1855,1851,1853
2420320,1856,1851,1854
2420330,1857,1851,1855
2420340,1858,1854,1850
2420350,1859,1854,1856
2420360,1859,1855,1850
2420370,1861,1856,1856
2420380,1863,1855,1862
2420390,1865,1854,1861
2420400,1868,1854,1856
2420410,1869,1856,1860
2420420,1870,1856,1858
2420430,1872,1861,1862
2420440,1870,1859,1861
2420450,1873,1861,1865
2420460,1872,1859,1866
2420470,1872,1858,1862
2420480,1871,1857,1863
2420490,1870,1858,1862
2420500,1867,1856,1859
2420510,1870,1855,1858
2420520,1870,1856,1858
2420530,1867,1856,1859
2420540,1863,1856,1856
2420550,1865,1854,1859
2420560,1861,1853,1856
2420570,1861,1855,1856
2420580,1862,1855,1854
2420590,1860,1853,1853
2420600,1856,1853,1854
2420610,1861,1853,1856
2420620,1862,1853,1852
2420630,1862,1853,1854
2420640,1859,1854,1853
2420650,1862,1853,1851
2420660,1863,1853,1853
2420670,1869,1854,1856
2420680,1872,1855,1857
2420690,1872,1860,1859
2420700,1876,1862,1865
2420710,1879,1867,1872
2420720,1888,1872,1877
2420730,1893,1872,1877
2420740,1897,1872,1888
2420750,1901,1876,1891
2420760,1904,1877,1897
2420770,1904,1879,1897
2420780,1904,1881,1898
2420790,1904,1881,1894
2420800,1903,1880,1895
2420810,1895,1876,1891
2420820,1891,1875,1887
2420830,1887,1873,1882
2420840,1881,1872,1878
2420850,1872,1869,1874
2420860,1872,1867,1872
2420870,1870,1863,1871
2420880,1865,1859,1867
2420890,1862,1856,1861
2420900,1859,1855,1859
2420910,1858,1854,1858
2420920,1858,1851,1853
2420930,1856,1853,1855
2420940,1856,1851,1853
2420950,1856,1853,1853
2420960,1854,1851,1855
2420970,1856,1847,1855
2420980,1862,1852,1855
2420990,1857,1850,1857
2421000,1861,1854,1857
2421010,1866,1855,1858
2421020,1867,1856,1856
2421030,1867,1857,1860
2421040,1870,1856,1862
2421050,1870,1856,1865
2421060,1871,1857,1865
2421070,1872,1861,1863
2421080,1871,1855,1866
2421090,1872,1857,1863
2421100,1865,1859,1865
2421110,1870,1857,1863
2421120,1870,1860,1860
2421130,1867,1856,1858
2421140,1863,1855,1857
2421150,1863,1856,1858
2421160,1862,1855,1856
2421170,1859,1854,1856
2421180,1863,1854,1856
2421190,1867,1855,1856
2421200,1859,1855,1855
2421210,1863,1855,1855
2421220,1861,1852,1855
2421230,1861,1854,1854
2421240,1860,1850,1854
2421250,1863,1849,1854
2421260,1863,1854,1855
2421270,1870,1856,1856
2421280,1871,1862,1858
2421290,1872,1858,1861
2421300,1875,1861,1867
2421310,1884,1868,1871
2421320,1887,1871,1879
2421330,1893,1875,1883
2421340,1897,1874,1888
2421350,1901,1878,1891
2421360,1902,1876,1897
2421370,1903,1879,1894
2421380,1901,1883,1898
2421390,1897,1879,1898
2421400,1894,1878,1894
2421410,1891,1876,1889
2421420,1886,1872,1889
2421430,1885,1872,1883
2421440,1875,1869,1879
2421450,1872,1865,1873
2421460,1872,1864,1872
2421470,1866,1860,1871
2421480,1862,1857,1866
2421490,1860,1854,1859
2421500,1855,1853,1860
2421510,1858,1856,1855
2421520,1854,1851,1853
2421530,1853,1850,1851
2421540,1853,1849,1853
2421550,1853,1850,1851
2421560,1857,1851,1852
2421570,1856,1853,1850
2421580,1857,1851,1853
2421590,1861,1851,1856
2421600,1863,1853,1854
2421610,1866,1854,1859
2421620,1866,1855,1858
2421630,1870,1854,1857
2421640,1871,1855,1859
2421650,1871,1856,1861
2421660,1870,1856,1862
2421670,1866,1857,1865
2421680,1871,1856,1858
2421690,1868,1856,1861
2421700,1871,1858,1863
2421710,1869,1859,1861
2421720,1870,1856,1858
2421730,1867,1857,1858
2421740,1867,1856,1858
2421750,1863,1854,1856
2421760,1863,1855,1856
2421770,1865,1854,1855
2421780,1859,1856,1856
2421790,1858,1853,1853
2421800,1861,1851,1853
2421810,1859,1855,1855
2421820,1859,1854,1853
2421830,1861,1854,1854
2421840,1861,1853,1853
2421850,1861,1854,1851
2421860,1859,1854,1853
2421870,1860,1854,1852
2421880,1862,1851,1855
2421890,1862,1856,1851
2421900,1861,1854,1851
2421910,1861,1853,1855
2421920,1862,1851,1855
2421930,1863,1855,1855
2421940,1869,1856,1856
2421950,1872,1858,1859
2421960,1872,1859,1865
2421970,1878,1863,1871
2421980,1888,1870,1874
2421990,1891,1872,1881
2422000,1898,1875,1886
2422010,1902,1879,1891
2422020,1905,1883,1895
2422030,1907,1885,1902
2422040,1906,1887,1904
2422050,1906,1888,1904
2422060,1904,1886,1904
2422070,1904,1886,1901
2422080,1899,1885,1894
2422090,1893,1878,1893
2422100,1884,1874,1886
2422110,1879,1872,1882
2422120,1873,1871,1877
2422130,1872,1866,1873
2422140,1867,1861,1869
2422150,1862,1858,1868
2422160,1858,1856,1866
2422170,1859,1855,1858
2422180,1856,1850,1856
2422190,1855,1852,1854
2422200,1855,1850,1855
2422210,1856,1850,1856
2422220,1856,1852,1853
2422230,1857,1853,1853
2422240,1861,1855,1856
2422250,1858,1854,1854
2422260,1863,1851,1857
2422270,1863,1854,1857
2422280,1865,1854,1860
2422290,1867,1855,1860
2422300,1871,1856,1861
2422310,1872,1857,1862
2422320,1872,1860,1862
2422330,1872,1862,1866
2422340,1872,1860,1866
2422350,1870,1859,1863
2422360,1872,1857,1863
2422370,1871,1856,1859
2422380,1869,1858,1862
2422390,1871,1856,1862
2422400,1869,1856,1862
2422410,1863,1855,1859
2422420,1863,1854,1858
2422430,1861,1855,1857
2422440,1862,1856,1859
2422450,1863,1854,1856
2422460,1861,1851,1855
2422470,1860,1851,1852
2422480,1861,1855,1855
2422490,1861,1851,1854
2422500,1859,1853,1856
2422510,1862,1851,1852
2422520,1862,1853,1855
2422530,1859,1851,1854
2422540,1862,1853,1851
2422550,1862,1855,1853
2422560,1861,1854,1854
2422570,1863,1850,1854
2422580,1865,1853,1854
2422590,1863,1855,1853
2422600,1863,1853,1853
2422610,1862,1855,1854
2422620,1862,1854,1855
2422630,1863,1856,1854
2422640,1867,1853,1855
2422650,1862,1855,1853
2422660,1867,1856,1852
2422670,1863,1853,1851
2422680,1865,1857,1855
2422690,1864,1851,1853
2422700,1863,1855,1854
2422710,1866,1854,1851
2422720,1863,1855,1854
2422730,1866,1853,1854
2422740,1863,1854,1851
2422750,1862,1853,1853
2422760,1861,1856,1853
2422770,1863,1855,1849
2422780,1863,1851,1850
2422790,1864,1854,1851
2422800,1863,1854,1853
2422810,1869,1854,1854
2422820,1871,1856,1854
2422830,1871,1856,1856
2422840,1874,1861,1863
2422850,1877,1863,1866
2422860,1888,1867,1872
2422870,1895,1872,1875
2422880,1901,1876,1883
2422890,1905,1875,1889
2422900,1907,1885,1895
2422910,1911,1887,1902
2422920,1910,1889,1904
2422930,1910,1889,1902
2422940,1905,1887,1903
2422950,1904,1887,1902
2422960,1904,1883,1897
2422970,1893,1878,1893
2422980,1887,1877,1888
2422990,1885,1872,1885
2423000,1875,1870,1879
2423010,1872,1867,1875
2423020,1870,1862,1872
2423030,1865,1857,1870
2423040,1862,1857,1866
2423050,1856,1855,1862
2423060,1857,1857,1863
2423070,1856,1853,1856
2423080,1855,1852,1856
2423090,1851,1849,1856
2423100,1856,1849,1856
2423110,1856,1851,1855
2423120,1858,1849,1855
2423130,1856,1854,1856
2423140,1861,1854,1856
2423150,1863,1857,1856
2423160,1869,1855,1859
2423170,1868,1855,1859
2423180,1872,1860,1862
2423190,1872,1856,1861
2423200,1874,1862,1862
2423210,1873,1860,1862
2423220,1873,1858,1867
2423230,1872,1861,1865
2423240,1872,1859,1865
2423250,1872,1858,1862
2423260,1868,1857,1859
2423270,1870,1858,1859
2423280,1868,1857,1861
2423290,1865,1856,1859
2423300,1863,1855,1857
2423310,1863,1856,1856
2423320,1865,1856,1856
2423330,1862,1854,1855
2423340,1863,1855,1855
2423350,1861,1856,1856
2423360,1862,1855,1853
2423370,1862,1857,1851
2423380,1859,1856,1853
2423390,1859,1854,1851
2423400,1859,1855,1851
2423410,1858,1853,1847
2423420,1862,1852,1853
2423430,1860,1853,1852
2423440,1858,1854,1851
2423450,1865,1851,1851
2423460,1859,1846,1855
2423470,1861,1856,1856
2423480,1862,1855,1847
2423490,1867,1855,1854
2423500,1866,1853,1855
2423510,1863,1854,1850
2423520,1866,1855,1851
2423530,1867,1855,1849
2423540,1863,1853,1853
2423550,1863,1850,1853
2423560,1865,1854,1851
2423570,1865,1856,1851
2423580,1867,1854,1851
2423590,1865,1851,1853
2423600,1866,1855,1851
2423610,1866,1851,1851
2423620,1863,1855,1854
2423630,1862,1856,1849
2423640,1868,1856,1854
2423650,1867,1856,1855
2423660,1865,1854,1854
2423670,1863,1855,1854
2423680,1868,1856,1853
2423690,1870,1855,1856
2423700,1872,1857,1860
2423710,1874,1863,1862
2423720,1882,1867,1867
2423730,1886,1872,1875
2423740,1894,1872,1879
2423750,1898,1873,1883
2423760,1904,1875,1889
2423770,1907,1882,1894
2423780,1907,1884,1898
2423790,1905,1885,1899
2423800,1909,1884,1898
2423810,1904,1882,1897
2423820,1902,1883,1894
2423830,1898,1877,1890
2423840,1891,1873,1887
2423850,1883,1872,1885
2423860,1879,1871,1878
2423870,1872,1867,1872
2423880,1871,1862,1871
2423890,1863,1862,1870
2423900,1861,1857,1863
2423910,1858,1855,1859
2423920,1855,1852,1857
2423930,1855,1854,1856
2423940,1853,1851,1855
2423950,1852,1851,1855
2423960,1854,1852,1850
2423970,1854,1853,1855
2423980,1856,1851,1853
2423990,1856,1853,1854
2424000,1859,1856,1855
2424010,1860,1856,1857
2424020,1862,1857,1857
2424030,1869,1856,1861
2424040,1870,1857,1859
2424050,1871,1858,1861
2424060,1872,1857,1865
2424070,1870,1860,1865
2424080,1871,1860,1867
2424090,1872,1862,1862
2424100,1872,1857,1863
2424110,1872,1862,1862
2424120,1872,1858,1861
2424130,1872,1857,1861
2424140,1870,1856,1862
2424150,1867,1856,1860
2424160,1869,1857,1856
2424170,1869,1856,1856
2424180,1860,1856,1857
2424190,1861,1854,1856
2424200,1863,1855,1856
2424210,1861,1855,1855
2424220,1861,1853,1855
2424230,1859,1855,1851
2424240,1867,1855,1854
2424250,1862,1856,1855
2424260,1863,1855,1855
2424270,1862,1851,1853
2424280,1862,1851,1857
2424290,1863,1854,1850
2424300,1866,1854,1853
2424310,1863,1854,1853
2424320,1866,1854,1853
2424330,1865,1854,1853
2424340,1864,1852,1855
2424350,1865,1855,1853
2424360,1862,1855,1856
2424370,1861,1854,1855
2424380,1866,1855,1855
2424390,1867,1855,1852
2424400,1864,1855,1850
2424410,1869,1854,1853
2424420,1867,1857,1852
2424430,1863,1856,1854
2424440,1866,1855,1856
2424450,1868,1856,1854
2424460,1865,1856,1854
2424470,1870,1856,1854
2424480,1872,1861,1858
2424490,1873,1859,1863
2424500,1879,1863,1865
2424510,1885,1867,1872
2424520,1893,1872,1874
2424530,1900,1872,1881
2424540,1903,1878,1889
2424550,1903,1879,1893
2424560,1907,1883,1894
2424570,1911,1885,1900
2424580,1907,1885,1901
2424590,1904,1885,1897
2424600,1904,1882,1898
2424610,1902,1883,1893
2424620,1894,1882,1893
2424630,1887,1875,1888
2424640,1882,1872,1884
2424650,1876,1867,1882
2424660,1872,1869,1875
2424670,1867,1863,1872
2424680,1865,1857,1869
2424690,1860,1858,1865
2424700,1857,1855,1859
2424710,1856,1850,1859
2424720,1853,1851,1857
2424730,1856,1851,1855
2424740,1854,1852,1853
2424750,1856,1850,1854
2424760,1855,1850,1851
2424770,1857,1852,1855
2424780,1859,1853,1855
2424790,1862,1853,1855
2424800,1865,1852,1857
2424810,1867,1855,1858
2424820,1867,1856,1859
2424830,1871,1856,1862
2424840,1871,1861,1862
2424850,1872,1859,1863
2424860,1872,1860,1866
2424870,1872,1863,1862
2424880,1873,1861,1863
2424890,1872,1859,1861
2424900,1872,1864,1863
2424910,1872,1862,1865
2424920,1870,1859,1865
2424930,1871,1859,1860
2424940,1869,1857,1862
2424950,1867,1857,1857
2424960,1865,1857,1856
2424970,1863,1856,1857
2424980,1865,1858,1854
2424990,1863,1854,1855
2425000,1865,1853,1855
2425010,1860,1854,1854
2425020,1859,1853,1855
2425030,1865,1854,1856
2425040,1862,1851,1855
2425050,1861,1854,1854
2425060,1862,1854,1852
2425070,1866,1855,1852
2425080,1863,1854,1852
2425090,1865,1856,1853
2425100,1863,1854,1855
2425110,1866,1855,1853
2425120,1863,1855,1853
2425130,1861,1853,1852
2425140,1870,1854,1855
2425150,1862,1856,1851
2425160,1865,1855,1853
2425170,1862,1852,1853
2425180,1862,1853,1849
2425190,1863,1855,1851
2425200,1863,1856,1851
2425210,1868,1856,1852
2425220,1861,1856,1853
2425230,1869,1856,1853
2425240,1863,1856,1853
2425250,1866,1851,1854
2425260,1868,1855,1850
2425270,1863,1854,1851
2425280,1866,1855,1851
2425290,1866,1863,1853
2425300,1863,1855,1851
2425310,1867,1854,1853
2425320,1868,1856,1853
2425330,1868,1855,1855
2425340,1870,1856,1855
2425350,1872,1862,1859
2425360,1879,1862,1861
2425370,1886,1866,1867
2425380,1898,1872,1873
2425390,1901,1874,1881
2425400,1904,1877,1888
2425410,1907,1878,1893
2425420,1910,1884,1899
2425430,1911,1885,1903
2425440,1909,1886,1903
2425450,1913,1889,1904
2425460,1907,1887,1902
2425470,1901,1882,1898
2425480,1897,1884,1895
2425490,1892,1881,1894
2425500,1885,1875,1888
2425510,1882,1872,1885
2425520,1877,1871,1875
2425530,1872,1866,1875
2425540,1870,1863,1872
2425550,1865,1859,1869
2425560,1862,1859,1861
2425570,1857,1854,1858
2425580,1859,1851,1859
2425590,1855,1852,1856
2425600,1855,1850,1857
2425610,1856,1847,1854
2425620,1856,1855,1855
2425630,1855,1855,1854
2425640,1857,1850,1856
2425650,1859,1855,1857
2425660,1861,1856,1857
2425670,1866,1856,1858
2425680,1870,1855,1862
2425690,1869,1858,1857
2425700,1869,1858,1861
2425710,1871,1859,1865
2425720,1872,1861,1863
2425730,1872,1859,1866
2425740,1872,1862,1866
2425750,1872,1862,1866
2425760,1872,1858,1865
2425770,1872,1858,1863
2425780,1870,1857,1863
2425790,1867,1857,1863
2425800,1869,1856,1860
2425810,1867,1856,1861
2425820,1863,1858,1859
2425830,1866,1857,1856
2425840,1865,1856,1856
2425850,1858,1855,1855
2425860,1863,1853,1857
2425870,1862,1853,1853
2425880,1861,1852,1855
2425890,1861,1851,1854
2425900,1860,1855,1855
2425910,1861,1855,1852
2425920,1863,1856,1855
2425930,1858,1854,1853
2425940,1863,1855,1855
2425950,1861,1854,1851
2425960,1862,1855,1851
2425970,1861,1854,1851
2425980,1862,1855,1854
2425990,1861,1855,1853
2426000,1868,1855,1854
2426010,1863,1853,1851
2426020,1861,1855,1850
2426030,1862,1854,1854
2426040,1865,1855,1855
2426050,1859,1855,1852
2426060,1865,1856,1850
2426070,1866,1855,1854
2426080,1861,1853,1851
2426090,1866,1853,1851
2426100,1866,1856,1850
2426110,1867,1855,1856
2426120,1867,1854,1851
2426130,1866,1856,1851
2426140,1866,1854,1850
2426150,1862,1851,1849
2426160,1866,1856,1851
2426170,1866,1852,1851
2426180,1863,1854,1851
2426190,1863,1854,1850
2426200,1865,1854,1852
2426210,1859,1853,1849
2426220,1859,1853,1847
2426230,1862,1853,1850
2426240,1865,1853,1849
2426250,1863,1857,1853
2426260,1865,1856,1854
2426270,1867,1855,1856
2426280,1872,1856,1855
2426290,1874,1866,1860
2426300,1876,1867,1869
2426310,1887,1867,1874
2426320,1892,1872,1881
2426330,1902,1874,1885
2426340,1903,1877,1889
2426350,1907,1883,1898
2426360,1909,1883,1897
2426370,1909,1883,1900
2426380,1908,1885,1899
2426390,1906,1885,1900
2426400,1904,1882,1898
2426410,1901,1882,1889
2426420,1894,1877,1892
2426430,1888,1874,1888
2426440,1881,1879,1883
2426450,1875,1868,1878
2426460,1875,1869,1873
2426470,1866,1861,1872
2426480,1869,1859,1865
2426490,1858,1855,1860
2426500,1856,1856,1857
2426510,1856,1857,1856
2426520,1856,1854,1854
2426530,1856,1849,1856
2426540,1856,1847,1855
2426550,1853,1850,1852
2426560,1854,1847,1852
2426570,1856,1855,1850
2426580,1860,1854,1853
2426590,1862,1856,1853
2426600,1863,1857,1855
2426610,1866,1857,1855
2426620,1869,1858,1861
2426630,1869,1856,1858
2426640,1872,1861,1861
2426650,1872,1859,1863
2426660,1872,1862,1863
2426670,1872,1860,1862
2426680,1872,1863,1862
2426690,1872,1861,1865
2426700,1870,1862,1862
2426710,1868,1859,1860
2426720,1869,1857,1857
2426730,1869,1860,1857
2426740,1867,1856,1857
2426750,1863,1855,1856
2426760,1866,1855,1854
2426770,1861,1856,1854
2426780,1863,1858,1854
2426790,1863,1855,1855
2426800,1861,1853,1851
2426810,1862,1855,1852
2426820,1861,1854,1851
2426830,1862,1852,1851
2426840,1861,1851,1851
2426850,1859,1855,1846
2426860,1856,1855,1847
2426870,1863,1854,1848
2426880,1863,1853,1850
2426890,1860,1854,1847
2426900,1867,1854,1845
2426910,1862,1854,1856
2426920,1863,1855,1847
2426930,1863,1857,1848
2426940,1863,1856,1842
2426950,1861,1852,1850
2426960,1860,1853,1846
2426970,1861,1855,1849
2426980,1862,1855,1850
2426990,1858,1855,1847
2427000,1866,1853,1851
2427010,1865,1854,1851
2427020,1866,1851,1846
2427030,1865,1855,1849
2427040,1859,1855,1849
2427050,1867,1855,1849
2427060,1863,1856,1851
2427070,1866,1855,1850
2427080,1865,1856,1849
2427090,1867,1856,1850
2427100,1864,1854,1851
2427110,1869,1855,1854
2427120,1870,1862,1856
2427130,1876,1861,1858
2427140,1878,1866,1864
2427150,1882,1871,1867
2427160,1892,1872,1873
2427170,1898,1875,1875
2427180,1901,1873,1882
2427190,1904,1879,1886
2427200,1904,1878,1887
2427210,1905,1883,1893
2427220,1905,1878,1894
2427230,1906,1881,1893
2427240,1903,1877,1889
2427250,1902,1875,1884
2427260,1897,1873,1883
2427270,1892,1872,1878
2427280,1883,1870,1872
2427290,1879,1868,1870
2427300,1875,1865,1868
2427310,1874,1862,1865
2427320,1871,1857,1859
2427330,1870,1856,1859
2427340,1865,1855,1856
2427350,1863,1853,1850
2427360,1858,1855,1847
2427370,1858,1853,1847
2427380,1859,1853,1843
2427390,1857,1854,1842
2427400,1862,1855,1842
2427410,1859,1854,1846
2427420,1861,1855,1846
2427430,1870,1856,1847
2427440,1869,1856,1851
2427450,1871,1860,1854
2427460,1871,1859,1856
2427470,1872,1860,1856
2427480,1873,1862,1856
2427490,1872,1861,1857
2427500,1872,1858,1857
2427510,1874,1861,1859
2427520,1875,1858,1858
2427530,1873,1862,1857
2427540,1872,1859,1857
2427550,1872,1859,1857
2427560,1872,1858,1855
2427570,1871,1859,1857
2427580,1871,1859,1852
2427590,1867,1856,1853
2427600,1869,1854,1852
2427610,1870,1856,1854
2427620,1867,1856,1854
2427630,1869,1854,1853
2427640,1865,1856,1851
2427650,1869,1856,1853
2427660,1867,1850,1851
2427670,1862,1856,1853
2427680,1861,1853,1850
2427690,1867,1853,1851
2427700,1863,1855,1853
2427710,1865,1849,1853
2427720,1866,1854,1850
2427730,1865,1856,1853
2427740,1866,1855,1850
2427750,1863,1855,1853
2427760,1863,1853,1854
2427770,1863,1853,1854
2427780,1867,1857,1854
2427790,1866,1854,1851
2427800,1868,1855,1856
2427810,1868,1857,1854
2427820,1871,1855,1855
2427830,1870,1856,1856
2427840,1871,1855,1856
2427850,1872,1856,1859
2427860,1873,1860,1863
2427870,1876,1863,1870
2427880,1882,1870,1871
2427890,1891,1870,1877
2427900,1892,1872,1881
2427910,1899,1872,1887
2427920,1904,1876,1894
2427930,1906,1879,1897
2427940,1907,1879,1899
2427950,1909,1880,1902
2427960,1907,1879,1903
2427970,1909,1879,1895
2427980,1905,1877,1895
2427990,1903,1875,1893
2428000,1902,1872,1891
2428010,1890,1870,1887
2428020,1884,1867,1882
2428030,1883,1867,1877
2428040,1876,1862,1873
2428050,1872,1857,1869
2428060,1872,1857,1869
2428070,1870,1855,1862
2428080,1867,1854,1859
2428090,1863,1855,1856
2428100,1862,1853,1856
2428110,1861,1854,1853
2428120,1865,1850,1854
2428130,1863,1853,1856
2428140,1861,1854,1855
2428150,1863,1855,1857
2428160,1866,1855,1859
2428170,1866,1857,1857
2428180,1869,1856,1858
2428190,1872,1857,1859
2428200,1872,1858,1861
2428210,1872,1860,1867
2428220,1872,1859,1865
2428230,1875,1860,1866
2428240,1874,1859,1865
2428250,1873,1859,1862
2428260,1874,1859,1863
2428270,1872,1862,1865
2428280,1871,1858,1865
2428290,1872,1858,1862
2428300,1870,1856,1857
2428310,1869,1856,1863
2428320,1870,1855,1857
2428330,1867,1856,1858
2428340,1867,1856,1856
2428350,1867,1856,1854
2428360,1866,1856,1858
2428370,1862,1855,1855
2428380,1866,1855,1854
2428390,1869,1855,1854
2428400,1867,1857,1851
2428410,1867,1854,1854
2428420,1862,1853,1853
2428430,1862,1854,1851
2428440,1862,1853,1854
2428450,1866,1853,1852
2428460,1862,1855,1854
2428470,1863,1855,1853
2428480,1863,1856,1856
2428490,1865,1855,1851
2428500,1862,1854,1851
2428510,1863,1855,1854
2428520,1867,1855,1855
2428530,1867,1855,1854
2428540,1867,1855,1853
2428550,1865,1856,1854
2428560,1865,1851,1855
2428570,1866,1855,1853
2428580,1867,1856,1854
2428590,1869,1854,1854
2428600,1865,1856,1854
2428610,1862,1855,1853
2428620,1866,1856,1854
2428630,1866,1855,1855
2428640,1866,1854,1856
2428650,1868,1852,1855
2428660,1869,1856,1853
2428670,1872,1856,1860
2428680,1872,1861,1863
2428690,1873,1863,1865
2428700,1879,1867,1872
2428710,1887,1872,1873
2428720,1891,1873,1881
2428730,1898,1877,1883
2428740,1903,1879,1891
2428750,1906,1879,1893
2428760,1907,1885,1897
2428770,1908,1883,1899
2428780,1909,1879,1903
2428790,1906,1884,1898
2428800,1904,1876,1894
2428810,1903,1874,1892
2428820,1898,1875,1889
2428830,1892,1871,1881
2428840,1888,1865,1878
2428850,1879,1865,1874
2428860,1881,1863,1872
2428870,1872,1859,1866
2428880,1871,1858,1863
2428890,1872,1855,1857
2428900,1863,1854,1858
2428910,1865,1856,1853
2428920,1861,1853,1852
2428930,1858,1853,1855
2428940,1859,1854,1855
2428950,1859,1856,1851
2428960,1858,1855,1851
2428970,1862,1853,1854
2428980,1863,1855,1854
2428990,1862,1857,1856
2429000,1867,1855,1855
2429010,1867,1859,1857
2429020,1870,1859,1859
2429030,1871,1856,1859
2429040,1869,1860,1861
2429050,1872,1861,1861
2429060,1872,1859,1861
2429070,1871,1864,1865
2429080,1871,1859,1861
2429090,1872,1861,1858
2429100,1871,1856,1862
2429110,1871,1861,1859
2429120,1870,1861,1859
2429130,1869,1862,1860
2429140,1866,1857,1857
2429150,1863,1856,1855
2429160,1862,1858,1855
2429170,1862,1854,1854
2429180,1863,1856,1853
2429190,1861,1851,1854
2429200,1861,1855,1853
2429210,1858,1854,1851
2429220,1859,1854,1851
2429230,1862,1856,1853
2429240,1861,1855,1849
2429250,1862,1851,1850
2429260,1859,1855,1851
2429270,1861,1853,1851
2429280,1862,1855,1855
2429290,1859,1855,1849
2429300,1859,1852,1850
2429310,1862,1853,1853
2429320,1861,1853,1851
2429330,1862,1853,1855
2429340,1859,1854,1850
2429350,1863,1855,1853
2429360,1859,1855,1851
2429370,1859,1855,1854
2429380,1863,1855,1855
2429390,1863,1855,1857
2429400,1863,1868,1855
2429410,1863,1856,1854
2429420,1862,1854,1854
2429430,1866,1856,1854
2429440,1859,1855,1857
2429450,1863,1856,1853
2429460,1866,1854,1853
2429470,1865,1854,1855
2429480,1863,1853,1855
2429490,1862,1856,1847
2429500,1859,1855,1853
2429510,1867,1856,1850
2429520,1862,1854,1847
2429530,1863,1856,1849
2429540,1861,1856,1843
2429550,1867,1856,1855
2429560,1863,1854,1857
2429570,1863,1853,1849
2429580,1863,1856,1853
2429590,1865,1856,1853
2429600,1862,1850,1853
2429610,1865,1856,1853
2429620,1869,1855,1854
2429630,1872,1860,1860
2429640,1873,1861,1868
2429650,1878,1865,1871
2429660,1886,1867,1873
2429670,1891,1872,1879
2429680,1895,1877,1886
2429690,1903,1878,1891
2429700,1903,1882,1899
2429710,1907,1881,1901
2429720,1907,1881,1903
2429730,1909,1882,1903
2429740,1904,1882,1901
2429750,1904,1876,1895
2429760,1904,1875,1895
2429770,1901,1872,1889
2429780,1895,1872,1887
2429790,1890,1869,1882
2429800,1886,1870,1874
2429810,1877,1863,1873
2429820,1871,1858,1868
2429830,1872,1859,1866
2429840,1870,1856,1861
2429850,1861,1857,1862
2429860,1861,1855,1858
2429870,1858,1853,1855
2429880,1861,1854,1853
2429890,1858,1854,1853
2429900,1858,1853,1856
2429910,1859,1853,1856
2429920,1861,1855,1856
2429930,1862,1855,1856
2429940,1859,1855,1860
2429950,1867,1857,1861
2429960,1871,1858,1861
2429970,1867,1856,1862
2429980,1871,1856,1866
2429990,1871,1861,1862
2430000,1870,1858,1864
2430010,1870,1857,1863
2430020,1870,1860,1866
2430030,1870,1856,1863
2430040,1871,1859,1863
2430050,1871,1858,1860
2430060,1868,1856,1862
2430070,1869,1856,1858
2430080,1869,1855,1859
2430090,1863,1855,1858
2430100,1860,1856,1859
2430110,1862,1856,1856
2430120,1866,1853,1854
2430130,1863,1857,1856
2430140,1865,1855,1855
2430150,1860,1855,1855
2430160,1861,1856,1854
2430170,1856,1853,1853
2430180,1861,1855,1849
2430190,1860,1856,1853
2430200,1860,1855,1851
2430210,1861,1855,1849
2430220,1862,1854,1854
2430230,1858,1855,1851
2430240,1858,1853,1855
2430250,1861,1855,1853
2430260,1862,1853,1854
2430270,1862,1851,1854
2430280,1862,1856,1853
2430290,1862,1854,1854
2430300,1862,1854,1854
2430310,1859,1855,1855
2430320,1861,1854,1851
2430330,1865,1856,1855
2430340,1863,1854,1856
2430350,1865,1854,1853
2430360,1863,1855,1855
2430370,1862,1855,1856
2430380,1861,1854,1856
2430390,1863,1851,1851
2430400,1865,1853,1855
2430410,1859,1855,1851
2430420,1862,1853,1855
2430430,1863,1855,1853
2430440,1863,1854,1854
2430450,1861,1855,1853
2430460,1861,1853,1852
2430470,1860,1851,1852
2430480,1863,1855,1853
2430490,1861,1855,1853
2430500,1865,1855,1854
2430510,1861,1854,1851
2430520,1862,1853,1853
2430530,1862,1854,1852
2430540,1862,1856,1851
2430550,1862,1856,1851
2430560,1865,1855,1853
2430570,1863,1851,1855
2430580,1867,1853,1853
2430590,1865,1853,1853
2430600,1867,1854,1853
2430610,1869,1855,1852
2430620,1872,1857,1855
2430630,1872,1857,1859
2430640,1872,1863,1863
2430650,1875,1868,1869
2430660,1888,1871,1872
2430670,1890,1872,1877
2430680,1893,1874,1886
2430690,1902,1874,1889
2430700,1903,1878,1887
2430710,1904,1879,1898
2430720,1906,1879,1899
2430730,1904,1879,1901
2430740,1906,1877,1897
2430750,1903,1875,1895
2430760,1901,1872,1893
2430770,1897,1872,1887
2430780,1889,1869,1883
2430790,1884,1865,1882
2430800,1883,1863,1875
2430810,1874,1862,1872
2430820,1872,1857,1870
2430830,1870,1861,1868
2430840,1866,1857,1864
2430850,1860,1856,1859
2430860,1857,1854,1857
2430870,1859,1850,1856
2430880,1855,1855,1856
2430890,1854,1852,1856
2430900,1857,1852,1854
2430910,1855,1853,1855
2430920,1857,1855,1856
2430930,1862,1854,1855
2430940,1862,1855,1855
2430950,1861,1855,1861
2430960,1865,1860,1858
2430970,1869,1861,1858
2430980,1867,1859,1859
2430990,1870,1859,1861
2431000,1869,1857,1862
2431010,1866,1856,1861
2431020,1869,1859,1860
2431030,1870,1857,1864
2431040,1869,1857,1862
2431050,1871,1860,1862
2431060,1867,1859,1859
2431070,1870,1859,1859
2431080,1869,1854,1857
2431090,1865,1857,1857
2431100,1867,1856,1857
2431110,1865,1855,1856
2431120,1863,1856,1855
2431130,1863,1855,1856
2431140,1859,1856,1855
2431150,1866,1855,1855
2431160,1862,1854,1856
2431170,1861,1854,1855
2431180,1860,1857,1855
2431190,1862,1856,1856
2431200,1862,1856,1853
2431210,1862,1854,1857
2431220,1863,1852,1854
2431230,1861,1852,1855
2431240,1868,1856,1856
2431250,1862,1856,1857
2431260,1865,1854,1856
2431270,1862,1855,1856
2431280,1867,1855,1856
2431290,1861,1851,1855
2431300,1866,1856,1853
2431310,1865,1855,1853
2431320,1866,1856,1853
2431330,1863,1854,1854
2431340,1861,1856,1856
2431350,1863,1854,1854
2431360,1865,1855,1854
2431370,1862,1856,1856
2431380,1862,1855,1853
2431390,1863,1856,1853
2431400,1863,1855,1852
2431410,1862,1854,1851
2431420,1861,1855,1856
2431430,1862,1855,1855
2431440,1865,1854,1853
2431450,1863,1855,1854
2431460,1868,1856,1856
2431470,1866,1855,1854
2431480,1865,1855,1855
2431490,1863,1855,1855
2431500,1867,1856,1856
2431510,1868,1857,1851
2431520,1869,1853,1857
2431530,1870,1857,1859
2431540,1872,1859,1862
2431550,1873,1861,1865
2431560,1879,1863,1872
2431570,1888,1870,1875
2431580,1888,1871,1883
2431590,1895,1872,1888
2431600,1897,1872,1887
2431610,1902,1874,1895
2431620,1904,1875,1895
2431630,1904,1877,1898
2431640,1904,1879,1895
2431650,1901,1875,1898
2431660,1897,1874,1894
2431670,1893,1872,1890
2431680,1887,1872,1890
2431690,1884,1869,1882
2431700,1878,1869,1877
2431710,1873,1864,1876
2431720,1872,1862,1871
2431730,1869,1861,1871
2431740,1866,1861,1866
2431750,1863,1857,1862
2431760,1857,1854,1861
2431770,1856,1855,1856
2431780,1857,1855,1856
2431790,1857,1852,1858
2431800,1857,1856,1855
2431810,1856,1855,1856
2431820,1857,1856,1859
2431830,1858,1856,1857
2431840,1859,1858,1859
2431850,1861,1858,1859
2431860,1865,1866,1858
2431870,1867,1857,1861
2431880,1868,1856,1864
2431890,1870,1859,1863
2431900,1870,1861,1862
2431910,1870,1861,1862
2431920,1872,1858,1866
2431930,1871,1858,1863
2431940,1872,1861,1863
2431950,1872,1859,1862
2431960,1871,1861,1862
2431970,1871,1856,1861
2431980,1869,1858,1860
2431990,1865,1855,1857
2432000,1863,1857,1861
2432010,1865,1857,1859
2432020,1863,1857,1857
2432030,1861,1856,1857
2432040,1861,1856,1856
2432050,1861,1856,1855
2432060,1859,1855,1855
2432070,1862,1854,1854
2432080,1862,1856,1856
2432090,1861,1856,1851
2432100,1859,1855,1857
2432110,1858,1855,1854
2432120,1861,1855,1853
2432130,1860,1855,1855
2432140,1862,1855,1856
2432150,1862,1856,1855
2432160,1859,1853,1854
2432170,1862,1853,1854
2432180,1860,1859,1855
2432190,1861,1856,1851
2432200,1862,1855,1852
2432210,1863,1855,1853
2432220,1862,1854,1856
2432230,1862,1853,1851
2432240,1862,1857,1852
2432250,1861,1856,1853
2432260,1862,1853,1849
2432270,1860,1851,1855
2432280,1861,1856,1855
2432290,1863,1854,1853
2432300,1863,1856,1855
2432310,1863,1856,1856
2432320,1867,1856,1855
2432330,1868,1858,1856
2432340,1871,1860,1860
2432350,1872,1861,1863
2432360,1876,1863,1869
2432370,1885,1869,1872
2432380,1889,1872,1877
2432390,1893,1872,1886
2432400,1901,1873,1890
2432410,1903,1874,1890
2432420,1904,1879,1902
2432430,1904,1880,1900
2432440,1904,1879,1903
2432450,1904,1881,1899
2432460,1900,1878,1897
2432470,1897,1875,1895
2432480,1892,1873,1893
2432490,1886,1873,1888
2432500,1879,1872,1881
2432510,1877,1871,1875
2432520,1872,1867,1874
2432530,1869,1866,1871
2432540,1868,1859,1867
2432550,1862,1859,1863
2432560,1861,1856,1861
2432570,1857,1856,1853
2432580,1855,1855,1855
2432590,1855,1856,1856
2432600,1856,1856,1859
2432610,1854,1849,1854
2432620,1855,1854,1857
2432630,1857,1855,1856
2432640,1856,1854,1856
2432650,1859,1855,1858
2432660,1862,1855,1856
2432670,1862,1857,1861
2432680,1869,1857,1859
2432690,1869,1856,1860
2432700,1867,1858,1865
2432710,1871,1858,1863
2432720,1867,1859,1865
2432730,1868,1860,1863
2432740,1871,1862,1867
2432750,1869,1861,1866
2432760,1869,1857,1863
2432770,1869,1860,1863
2432780,1866,1858,1862
2432790,1865,1858,1861
2432800,1867,1857,1859
2432810,1863,1857,1856
2432820,1862,1857,1856
2432830,1862,1856,1853
2432840,1856,1853,1851
2432850,1859,1855,1852
2432860,1859,1853,1853
2432870,1859,1854,1853
2432880,1853,1853,1851
2432890,1857,1853,1852
2432900,1860,1854,1850
2432910,1859,1855,1854
2432920,1861,1856,1853
2432930,1859,1855,1854
2432940,1861,1850,1853
2432950,1860,1855,1856
2432960,1859,1854,1856
2432970,1863,1856,1856
2432980,1863,1855,1858
2432990,1857,1856,1856
2433000,1860,1853,1854
2433010,1865,1856,1856
2433020,1865,1854,1854
2433030,1858,1853,1855
2433040,1861,1856,1853
2433050,1862,1853,1854
2433060,1861,1855,1852
2433070,1862,1855,1853
2433080,1866,1855,1849
2433090,1859,1854,1852
2433100,1862,1854,1851
2433110,1863,1858,1853
2433120,1861,1854,1853
2433130,1866,1857,1851
2433140,1865,1856,1851
2433150,1865,1854,1849
2433160,1865,1856,1851
2433170,1866,1855,1851
2433180,1862,1854,1856
2433190,1866,1856,1850
2433200,1863,1855,1851
2433210,1863,1856,1852
2433220,1861,1850,1851
2433230,1863,1855,1851
2433240,1865,1855,1853
2433250,1859,1853,1851
2433260,1866,1851,1847
2433270,1865,1854,1851
2433280,1866,1853,1851
2433290,1864,1856,1854
2433300,1870,1858,1854
2433310,1875,1860,1860
2433320,1878,1867,1866
2433330,1888,1869,1872
2433340,1893,1872,1875
2433350,1903,1877,1884
2433360,1906,1879,1891
2433370,1907,1883,1898
2433380,1909,1882,1900
2433390,1909,1883,1901
2433400,1911,1885,1903
2433410,1904,1887,1903
2433420,1904,1885,1901
2433430,1899,1881,1895
2433440,1895,1874,1891
2433450,1890,1873,1888
2433460,1881,1871,1884
2433470,1875,1869,1877
2433480,1872,1867,1873
2433490,1871,1863,1870
2433500,1866,1858,1865
2433510,1863,1857,1865
2433520,1859,1856,1856
2433530,1857,1856,1856
2433540,1856,1854,1855
2433550,1856,1852,1852
2433560,1856,1854,1855
2433570,1855,1851,1851
2433580,1857,1854,1856
2433590,1857,1855,1849
2433600,1857,1853,1853
2433610,1859,1855,1854
2433620,1863,1856,1853
2433630,1865,1856,1856
2433640,1867,1854,1857
2433650,1871,1857,1857
2433660,1871,1857,1857
2433670,1871,1861,1856
2433680,1872,1859,1857
2433690,1872,1861,1856
2433700,1872,1861,1857
2433710,1872,1861,1856
2433720,1869,1859,1854
2433730,1870,1859,1853
2433740,1869,1858,1850
2433750,1870,1856,1852
2433760,1869,1858,1847
2433770,1867,1856,1844
2433780,1867,1856,1841
2433790,1867,1856,1842
2433800,1864,1856,1840
2433810,1862,1853,1840
2433820,1859,1853,1840
2433830,1865,1856,1836
2433840,1865,1852,1838
2433850,1862,1853,1840
2433860,1862,1856,1840
2433870,1859,1854,1840
2433880,1863,1854,1839
2433890,1861,1854,1840
2433900,1863,1855,1840
2433910,1863,1853,1840
2433920,1863,1856,1840
2433930,1865,1851,1840
2433940,1866,1854,1842
2433950,1862,1856,1840
2433960,1863,1855,1841
2433970,1868,1856,1842
2433980,1866,1856,1842
2433990,1866,1851,1842
2434000,1866,1855,1843
2434010,1865,1855,1845
2434020,1867,1856,1844
2434030,1868,1853,1844
2434040,1866,1855,1843
2434050,1871,1854,1843
2434060,1865,1854,1845
2434070,1862,1856,1845
2434080,1862,1855,1846
2434090,1863,1855,1847
2434100,1867,1853,1843
2434110,1861,1854,1844
2434120,1861,1854,1843
2434130,1866,1852,1843
2434140,1866,1856,1846
2434150,1866,1856,1844
2434160,1865,1855,1843
2434170,1866,1855,1847
2434180,1865,1852,1846
2434190,1864,1856,1845
2434200,1862,1854,1843
2434210,1866,1854,1843
2434220,1862,1855,1843
2434230,1865,1852,1842
2434240,1862,1854,1845
2434250,1866,1853,1841
2434260,1861,1855,1843
2434270,1867,1856,1843
2434280,1865,1855,1849
2434290,1867,1856,1850
2434300,1872,1860,1851
2434310,1879,1863,1855
2434320,1884,1867,1860
2434330,1889,1871,1868
2434340,1899,1872,1874
2434350,1904,1874,1881
2434360,1907,1874,1885
2434370,1912,1883,1889
2434380,1911,1882,1894
2434390,1913,1883,1893
2434400,1910,1885,1893
2434410,1905,1882,1894
2434420,1902,1879,1891
2434430,1899,1879,1889
2434440,1891,1874,1886
2434450,1885,1872,1879
2434460,1877,1872,1874
2434470,1874,1867,1870
2434480,1871,1863,1870
2434490,1867,1858,1866
2434500,1863,1858,1863
2434510,1860,1856,1857
2434520,1857,1855,1856
2434530,1855,1853,1854
2434540,1856,1854,1852
2434550,1856,1855,1853
2434560,1856,1850,1855
2434570,1856,1854,1847
2434580,1856,1853,1853
2434590,1856,1855,1853
2434600,1858,1854,1856
2434610,1863,1855,1856
2434620,1867,1856,1856
2434630,1871,1855,1857
2434640,1867,1859,1858
2434650,1872,1860,1863
2434660,1872,1860,1863
2434670,1872,1862,1862
2434680,1873,1858,1862
2434690,1872,1861,1866
2434700,1872,1861,1867
2434710,1871,1859,1866
2434720,1870,1861,1866
2434730,1871,1861,1864
2434740,1870,1858,1861
2434750,1871,1859,1861
2434760,1867,1856,1860
2434770,1866,1857,1858
2434780,1865,1856,1859
2434790,1862,1858,1859
2434800,1863,1856,1856
2434810,1862,1854,1857
2434820,1861,1854,1859
2434830,1860,1856,1855
2434840,1858,1854,1855
2434850,1860,1854,1855
2434860,1862,1854,1856
2434870,1859,1854,1856
2434880,1863,1854,1855
2434890,1862,1852,1856
2434900,1862,1856,1856
2434910,1861,1856,1857
2434920,1863,1851,1856
2434930,1863,1855,1856
2434940,1863,1854,1856
2434950,1863,1855,1857
2434960,1865,1854,1856
2434970,1863,1856,1857
2434980,1863,1855,1857
2434990,1861,1856,1858
2435000,1863,1855,1857
2435010,1865,1853,1856
2435020,1863,1855,1857
2435030,1861,1855,1859
2435040,1859,1854,1860
2435050,1862,1855,1858
2435060,1862,1853,1856
2435070,1865,1856,1858
2435080,1863,1855,1857
2435090,1862,1854,1858
2435100,1861,1855,1856
2435110,1862,1853,1858
2435120,1863,1856,1858
2435130,1866,1855,1858
2435140,1862,1853,1856
2435150,1863,1855,1857
2435160,1863,1853,1856
2435170,1865,1856,1856
2435180,1863,1849,1856
2435190,1867,1854,1855
2435200,1866,1854,1855
2435210,1867,1855,1855
2435220,1865,1853,1856
2435230,1863,1856,1855
2435240,1867,1853,1856
2435250,1867,1856,1855
2435260,1870,1855,1857
2435270,1872,1857,1862
2435280,1873,1857,1861
2435290,1879,1861,1866
2435300,1886,1867,1872
2435310,1891,1871,1873
2435320,1899,1870,1881
2435330,1904,1874,1888
2435340,1906,1878,1891
2435350,1909,1879,1899
2435360,1911,1882,1901
2435370,1910,1884,1904
2435380,1912,1883,1904
2435390,1908,1883,1904
2435400,1904,1881,1903
2435410,1901,1879,1899
2435420,1891,1874,1895
2435430,1885,1872,1891
2435440,1878,1872,1889
2435450,1873,1872,1883
2435460,1872,1866,1878
2435470,1865,1861,1872
2435480,1862,1859,1870
2435490,1860,1857,1867
2435500,1857,1856,1872
2435510,1856,1854,1861
2435520,1855,1853,1858
2435530,1856,1851,1860
2435540,1856,1854,1860
2435550,1857,1854,1856
2435560,1859,1855,1859
2435570,1859,1856,1862
2435580,1861,1856,1858
2435590,1863,1856,1860
2435600,1868,1856,1866
2435610,1869,1852,1862
2435620,1869,1856,1863
2435630,1871,1858,1861
2435640,1872,1857,1869
2435650,1872,1859,1867
2435660,1872,1862,1870
2435670,1873,1862,1871
2435680,1872,1861,1869
2435690,1872,1861,1866
2435700,1872,1862,1869
2435710,1872,1859,1866
2435720,1869,1858,1862
2435730,1871,1857,1866
2435740,1867,1857,1862
2435750,1867,1858,1863
2435760,1864,1856,1859
2435770,1867,1856,1862
2435780,1863,1856,1859
2435790,1863,1853,1857
2435800,1863,1853,1859
2435810,1862,1855,1858
2435820,1865,1855,1856
2435830,1863,1853,1854
2435840,1861,1856,1856
2435850,1861,1854,1856
2435860,1862,1857,1853
2435870,1866,1853,1855
2435880,1862,1855,1857
2435890,1865,1855,1855
2435900,1861,1854,1854
2435910,1867,1853,1853
2435920,1862,1856,1854
2435930,1865,1853,1854
2435940,1863,1856,1855
2435950,1870,1856,1853
2435960,1863,1856,1856
2435970,1862,1856,1857
2435980,1863,1855,1854
2435990,1865,1855,1856
2436000,1862,1854,1853
2436010,1868,1854,1856
2436020,1865,1854,1854
2436030,1860,1856,1851
2436040,1864,1856,1853
2436050,1862,1854,1853
2436060,1868,1856,1853
2436070,1865,1855,1851
2436080,1861,1855,1855
2436090,1862,1854,1854
2436100,1867,1855,1851
2436110,1863,1854,1853
2436120,1865,1856,1851
2436130,1867,1856,1853
2436140,1863,1854,1855
2436150,1872,1858,1856
2436160,1873,1861,1859
2436170,1882,1863,1866
2436180,1887,1865,1872
2436190,1893,1871,1873
2436200,1901,1872,1878
2436210,1904,1874,1889
2436220,1907,1877,1893
2436230,1907,1881,1897
2436240,1907,1882,1899
2436250,1909,1882,1901
2436260,1908,1879,1901
2436270,1904,1879,1899
2436280,1897,1879,1897
2436290,1893,1874,1895
2436300,1891,1873,1891
2436310,1882,1870,1886
2436320,1874,1869,1882
2436330,1872,1865,1874
2436340,1872,1866,1873
2436350,1867,1859,1869
2436360,1859,1858,1869
2436370,1861,1856,1861
2436380,1856,1857,1859
2436390,1856,1853,1858
2436400,1856,1851,1856
2436410,1856,1851,1856
2436420,1856,1849,1855
2436430,1857,1851,1855
2436440,1857,1853,1854
2436450,1859,1854,1853
2436460,1857,1855,1855
2436470,1865,1855,1856
2436480,1866,1856,1859
2436490,1867,1856,1859
2436500,1871,1857,1859
2436510,1872,1863,1860
2436520,1872,1863,1862
2436530,1872,1858,1866
2436540,1871,1861,1863
2436550,1873,1860,1861
2436560,1872,1860,1865
2436570,1872,1859,1863
2436580,1872,1862,1865
2436590,1872,1859,1862
2436600,1871,1861,1861
2436610,1868,1857,1858
2436620,1872,1856,1856
2436630,1864,1856,1858
2436640,1866,1855,1856
2436650,1864,1856,1856
2436660,1861,1852,1857
2436670,1862,1852,1854
2436680,1858,1854,1855
2436690,1860,1855,1853
2436700,1859,1855,1854
2436710,1859,1856,1853
2436720,1861,1851,1854
2436730,1863,1854,1851
2436740,1863,1854,1854
2436750,1863,1851,1854
2436760,1863,1854,1853
2436770,1865,1854,1853
2436780,1862,1854,1851
2436790,1866,1854,1855
2436800,1862,1853,1855
2436810,1865,1855,1850
