timestamp_ms_device,ppg_finger1,ppg_finger2,ppg_finger3
330762,1867,1858,1845
330771,1874,1867,1847
330781,1875,1859,1843
330791,1888,1870,1856
330801,1874,1868,1854
330811,1854,1851,1840
330821,1872,1862,1856
330831,1875,1865,1855
330841,1883,1872,1855
330851,1875,1863,1856
330861,1850,1842,1845
330871,1871,1859,1854
330881,1873,1859,1856
330891,1893,1871,1871
330901,1882,1868,1870
330911,1852,1860,1866
330921,1885,1872,1886
330931,1892,1878,1895
330941,1905,1895,1917
330951,1895,1891,1923
330961,1883,1886,1915
330971,1904,1897,1931
330981,1914,1903,1937
330991,1921,1914,1945
331001,1911,1906,1939
331011,1933,1887,1919
331021,1895,1895,1920
331031,1904,1899,1920
331041,1921,1902,1918
331051,1898,1886,1899
331061,1890,1878,1883
331071,1875,1875,1874
331081,1879,1874,1871
331091,1902,1877,1869
331101,1877,1866,1855
331111,1871,1855,1853
331121,1858,1850,1832
331131,1867,1856,1836
331141,1873,1857,1840
331151,1870,1854,1831
331161,1862,1850,1829
331171,1851,1846,1833
331181,1871,1853,1837
331191,1883,1859,1850
331201,1871,1858,1849
331211,1870,1859,1851
331221,1857,1855,1853
331231,1872,1872,1865
331241,1885,1870,1869
331251,1883,1869,1869
331261,1872,1865,1871
331271,1863,1859,1862
331281,1882,1870,1870
331291,1891,1877,1878
331301,1877,1871,1870
331311,1874,1860,1862
331321,1857,1858,1856
331331,1878,1863,1859
331341,1885,1870,1865
331351,1872,1863,1855
331361,1866,1858,1849
331371,1852,1851,1840
331381,1876,1859,1851
331391,1882,1867,1860
331401,1875,1861,1843
331411,1874,1859,1842
331421,1843,1851,1840
331431,1876,1856,1847
331441,1876,1862,1849
331451,1874,1863,1849
331461,1869,1861,1850
331471,1845,1851,1839
331481,1872,1862,1859
331491,1875,1861,1857
331501,1872,1863,1854
331511,1873,1862,1854
331521,1844,1847,1841
331531,1872,1861,1853
331541,1879,1861,1855
331551,1877,1862,1856
331561,1877,1862,1859
331571,1856,1850,1851
331581,1873,1863,1871
331591,1887,1872,1873
331601,1891,1876,1887
331611,1885,1877,1901
331621,1870,1872,1898
331631,1895,1888,1917
331641,1906,1900,1934
331651,1907,1900,1940
331661,1903,1901,1936
331671,1873,1887,1926
331681,1904,1902,1930
331691,1909,1904,1936
331701,1911,1903,1923
331711,1903,1895,1914
331721,1870,1870,1893
331731,1894,1885,1889
331741,1888,1879,1886
331751,1905,1882,1879
331761,1891,1873,1867
331771,1842,1853,1839
331781,1869,1859,1843
331791,1878,1861,1841
331801,1888,1862,1844
331811,1867,1853,1834
331821,1857,1839,1814
331831,1863,1854,1824
331841,1872,1850,1829
331851,1892,1856,1843
331861,1872,1855,1838
331871,1901,1844,1827
331881,1870,1850,1841
331891,1872,1858,1852
331901,1887,1869,1858
331911,1875,1859,1862
331921,1904,1876,1855
331931,1869,1854,1861
331941,1883,1867,1863
331951,1890,1877,1874
331961,1879,1871,1872
331971,1889,1881,1879
331981,1860,1863,1858
331991,1872,1861,1865
332001,1890,1867,1872
332011,1884,1868,1866
332021,1881,1868,1868
332031,1859,1857,1844
332041,1872,1860,1854
332051,1893,1862,1856
332061,1878,1861,1853
332071,1876,1867,1855
332081,1857,1855,1841
332091,1872,1856,1842
332101,1897,1866,1853
332111,1875,1861,1847
332121,1875,1863,1850
332131,1855,1850,1843
332141,1872,1861,1849
332151,1882,1874,1858
332161,1872,1862,1851
332171,1880,1861,1856
332181,1847,1854,1840
332191,1876,1857,1856
332201,1882,1871,1867
332211,1878,1870,1856
332221,1878,1871,1859
332231,1840,1853,1840
332241,1872,1866,1858
332251,1872,1863,1863
332261,1883,1871,1863
332271,1877,1867,1856
332281,1853,1851,1850
332291,1871,1859,1856
332301,1872,1866,1861
332311,1878,1871,1859
332321,1877,1865,1858
332331,1854,1845,1845
332341,1867,1858,1854
332351,1874,1858,1855
332361,1883,1866,1854
332371,1874,1863,1855
332381,1846,1842,1837
332391,1871,1855,1846
332401,1871,1855,1847
332411,1883,1867,1856
332421,1872,1862,1851
332431,1846,1849,1840
332441,1867,1855,1842
332451,1873,1863,1847
332461,1891,1869,1857
332471,1868,1856,1847
332481,1843,1849,1840
332491,1861,1861,1847
332501,1878,1862,1850
332511,1893,1867,1859
332521,1875,1865,1858
332531,1846,1849,1840
332541,1871,1856,1851
332551,1878,1856,1851
332561,1891,1870,1862
332571,1877,1867,1855
332581,1840,1847,1840
332591,1862,1858,1849
332601,1877,1861,1855
332611,1889,1872,1858
332621,1878,1866,1855
332631,1850,1846,1843
332641,1861,1863,1851
332651,1874,1866,1856
332661,1888,1872,1863
332671,1873,1866,1855
332681,1866,1847,1840
332691,1859,1856,1851
332701,1873,1858,1851
332711,1894,1872,1858
332721,1866,1861,1855
332731,1858,1865,1845
332741,1861,1859,1850
332751,1872,1862,1853
332761,1889,1868,1861
332771,1880,1870,1856
332781,1875,1862,1863
332791,1861,1860,1851
332801,1873,1861,1858
332811,1887,1869,1862
332821,1873,1869,1861
332831,1870,1857,1859
332841,1858,1854,1852
332851,1872,1867,1857
332861,1883,1866,1868
332871,1870,1863,1861
332881,1878,1863,1861
332891,1867,1863,1870
332901,1892,1869,1875
332911,1910,1879,1889
332921,1901,1882,1905
332931,1904,1886,1920
332941,1889,1891,1933
332951,1909,1905,1955
332961,1940,1919,1970
332971,1927,1915,1975
332981,1926,1913,1975
332991,1902,1906,1969
333001,1919,1907,1970
333011,1930,1917,1975
333021,1919,1910,1957
333031,1907,1904,1940
333041,1878,1888,1922
333051,1895,1888,1915
333061,1901,1890,1905
333071,1890,1883,1888
333081,1878,1874,1874
333091,1853,1857,1858
333101,1869,1866,1851
333111,1872,1869,1855
333121,1870,1859,1841
333131,1872,1859,1840
333141,1845,1845,1824
333151,1863,1866,1840
333161,1872,1856,1843
333171,1870,1861,1842
333181,1867,1861,1847
333191,1845,1853,1841
333201,1878,1865,1861
333211,1875,1872,1867
333221,1875,1873,1869
333231,1883,1870,1872
333241,1855,1862,1869
333251,1877,1874,1875
333261,1888,1872,1879
333271,1885,1872,1882
333281,1883,1872,1877
333291,1851,1857,1866
333301,1872,1870,1874
333311,1878,1872,1872
333321,1874,1868,1869
333331,1873,1873,1868
333341,1840,1856,1846
333351,1870,1861,1858
333361,1882,1866,1855
333371,1866,1859,1853
333381,1875,1861,1855
333391,1845,1841,1839
333401,1868,1855,1851
333411,1871,1859,1851
333421,1879,1863,1847
333431,1875,1859,1847
333441,1840,1845,1835
333451,1868,1859,1847
333461,1875,1859,1851
333471,1887,1866,1854
333481,1874,1867,1853
333491,1850,1849,1840
333501,1865,1863,1849
333511,1872,1862,1855
333521,1884,1866,1855
333531,1877,1863,1857
333541,1905,1859,1842
333551,1872,1859,1855
333561,1873,1861,1856
333571,1891,1871,1859
333581,1876,1865,1862
333591,1917,1859,1851
333601,1872,1865,1872
333611,1879,1866,1874
333621,1904,1882,1901
333631,1895,1884,1903
333641,1898,1888,1922
333651,1887,1881,1914
333661,1899,1897,1926
333671,1919,1904,1935
333681,1906,1899,1935
333691,1918,1905,1953
333701,1888,1891,1920
333711,1904,1893,1919
333721,1904,1902,1931
333731,1905,1893,1915
333741,1895,1885,1904
333751,1877,1872,1889
333761,1883,1872,1881
333771,1901,1872,1873
333781,1883,1870,1859
333791,1874,1870,1856
333801,1854,1851,1835
333811,1871,1856,1840
333821,1888,1861,1839
333831,1872,1854,1839
333841,1872,1856,1831
333851,1851,1844,1827
333861,1869,1851,1835
333871,1883,1867,1844
333881,1877,1859,1842
333891,1869,1858,1845
333901,1840,1853,1840
333911,1869,1855,1850
333921,1872,1869,1870
333931,1874,1868,1863
333941,1876,1871,1868
333951,1856,1854,1856
333961,1872,1867,1870
333971,1873,1870,1874
333981,1898,1872,1871
333991,1879,1871,1871
334001,1855,1855,1854
334011,1873,1867,1862
334021,1885,1872,1871
334031,1883,1870,1865
334041,1887,1872,1861
334051,1855,1855,1845
334061,1883,1862,1851
334071,1879,1867,1853
334081,1890,1866,1856
334091,1878,1861,1851
334101,1846,1847,1834
334111,1869,1859,1847
334121,1868,1856,1847
334131,1875,1862,1853
334141,1869,1859,1850
334151,1847,1852,1837
334161,1861,1851,1840
334171,1866,1859,1845
334181,1878,1865,1856
334191,1875,1869,1856
334201,1843,1850,1840
334211,1863,1857,1856
334221,1870,1867,1856
334231,1889,1872,1869
334241,1878,1869,1866
334251,1841,1851,1854
334261,1872,1862,1859
334271,1872,1862,1862
334281,1895,1872,1870
334291,1879,1866,1867
334301,1846,1849,1847
334311,1872,1855,1859
334321,1872,1859,1865
334331,1889,1870,1866
334341,1875,1866,1866
334351,1846,1846,1845
334361,1862,1856,1851
334371,1872,1860,1859
334381,1886,1872,1862
334391,1871,1863,1855
334401,1837,1846,1840
334411,1865,1859,1847
334421,1872,1863,1855
334431,1883,1862,1856
334441,1878,1864,1851
334451,1900,1849,1837
334461,1868,1855,1852
334471,1878,1861,1855
334481,1892,1872,1860
334491,1879,1870,1856
334501,1903,1861,1841
334511,1866,1855,1846
334521,1879,1863,1852
334531,1891,1872,1857
334541,1867,1860,1855
334551,1873,1875,1851
334561,1870,1857,1847
334571,1876,1859,1856
334581,1881,1872,1866
334591,1872,1866,1858
334601,1870,1863,1870
334611,1863,1855,1849
334621,1873,1862,1850
334631,1882,1867,1868
334641,1871,1861,1854
334651,1870,1856,1851
334661,1859,1856,1849
334671,1875,1862,1854
334681,1882,1871,1863
334691,1868,1865,1856
334701,1872,1863,1853
334711,1853,1852,1847
334721,1871,1866,1847
334731,1886,1867,1859
334741,1873,1866,1849
334751,1867,1859,1853
334761,1849,1856,1840
334771,1875,1867,1858
334781,1885,1871,1861
334791,1882,1865,1859
334801,1872,1865,1856
334811,1857,1853,1847
334821,1873,1867,1857
334831,1883,1870,1861
334841,1871,1866,1858
334851,1872,1856,1856
334861,1856,1857,1853
334871,1873,1866,1863
334881,1883,1873,1865
334891,1887,1869,1873
334901,1887,1874,1885
334911,1872,1871,1893
334921,1902,1887,1917
334931,1915,1901,1937
334941,1915,1903,1947
334951,1915,1907,1962
334961,1899,1901,1955
334971,1920,1915,1973
334981,1927,1920,1971
334991,1919,1913,1968
335001,1919,1911,1959
335011,1893,1899,1948
335021,1905,1911,1943
335031,1907,1903,1931
335041,1902,1892,1920
335051,1897,1885,1904
335061,1858,1872,1883
335071,1882,1872,1881
335081,1879,1867,1868
335091,1873,1866,1862
335101,1872,1862,1853
335111,1845,1846,1838
335121,1867,1856,1840
335131,1867,1854,1839
335141,1878,1858,1841
335151,1863,1856,1840
335161,1835,1840,1831
335171,1859,1855,1847
335181,1873,1861,1856
335191,1884,1868,1859
335201,1875,1866,1862
335211,1849,1852,1851
335221,1875,1870,1871
335231,1886,1872,1872
335241,1900,1877,1877
335251,1879,1871,1882
335261,1853,1857,1869
335271,1875,1873,1871
335281,1886,1873,1877
335291,1900,1877,1881
335301,1883,1872,1872
335311,1905,1865,1857
335321,1869,1872,1867
335331,1872,1869,1869
335341,1892,1872,1867
335351,1875,1867,1865
335361,1879,1880,1856
335371,1863,1860,1856
335381,1875,1859,1852
335391,1889,1870,1862
335401,1875,1862,1858
335411,1877,1865,1869
335421,1862,1858,1850
335431,1869,1859,1854
335441,1873,1869,1859
335451,1877,1863,1855
335461,1872,1867,1869
335471,1862,1855,1852
335481,1869,1857,1858
335491,1878,1868,1865
335501,1878,1863,1860
335511,1874,1867,1862
335521,1855,1853,1856
335531,1872,1862,1857
335541,1896,1872,1865
335551,1878,1871,1862
335561,1878,1867,1865
335571,1856,1858,1853
335581,1882,1863,1861
335591,1905,1877,1872
335601,1887,1872,1875
335611,1894,1878,1883
335621,1874,1869,1887
335631,1902,1887,1901
335641,1909,1903,1921
335651,1906,1895,1921
335661,1905,1897,1927
335671,1886,1891,1920
335681,1906,1901,1934
335691,1911,1907,1938
335701,1915,1899,1936
335711,1909,1899,1924
335721,1878,1886,1910
335731,1904,1888,1906
335741,1894,1888,1904
335751,1899,1884,1897
335761,1891,1877,1888
335771,1858,1861,1865
335781,1878,1869,1871
335791,1871,1866,1859
335801,1876,1867,1855
335811,1870,1857,1846
335821,1846,1842,1827
335831,1862,1855,1840
335841,1861,1855,1841
335851,1873,1855,1843
335861,1872,1857,1841
335871,1845,1840,1835
335881,1865,1857,1842
335891,1875,1859,1848
335901,1882,1867,1861
335911,1872,1866,1861
335921,1852,1855,1851
335931,1872,1861,1872
335941,1878,1872,1874
335951,1887,1878,1879
335961,1887,1873,1877
335971,1861,1859,1872
335981,1882,1872,1874
335991,1879,1875,1879
336001,1895,1878,1885
336011,1886,1872,1873
336021,1849,1859,1856
336031,1872,1870,1868
336041,1878,1869,1867
336051,1889,1872,1868
336061,1881,1863,1863
336071,1840,1847,1846
336081,1871,1861,1855
336091,1873,1866,1855
336101,1877,1874,1862
336111,1878,1861,1858
336121,1847,1847,1841
336131,1866,1856,1863
336141,1872,1859,1856
336151,1889,1867,1863
336161,1877,1858,1856
336171,1842,1844,1839
336181,1871,1860,1852
336191,1874,1868,1859
336201,1885,1871,1870
336211,1874,1862,1860
336221,1872,1870,1855
336231,1868,1856,1856
336241,1876,1865,1855
336251,1889,1872,1866
336261,1875,1858,1867
336271,1871,1866,1872
336281,1867,1856,1859
336291,1874,1866,1869
336301,1893,1871,1858
336311,1874,1861,1860
336321,1895,1873,1845
336331,1866,1861,1844
336341,1873,1866,1854
336351,1890,1869,1863
336361,1870,1861,1856
336371,1871,1861,1863
336381,1845,1849,1847
336391,1876,1861,1859
336401,1890,1867,1861
336411,1874,1862,1854
336421,1863,1865,1856
336431,1857,1847,1851
336441,1872,1867,1856
336451,1888,1872,1866
336461,1869,1859,1856
336471,1872,1864,1857
336481,1847,1850,1844
336491,1871,1859,1851
336501,1879,1867,1861
336511,1872,1867,1858
336521,1872,1861,1856
336531,1851,1853,1847
336541,1888,1865,1854
336551,1873,1870,1864
336561,1872,1859,1856
336571,1872,1861,1858
336581,1853,1854,1846
336591,1883,1860,1857
336601,1877,1865,1861
336611,1872,1861,1855
336621,1872,1862,1856
336631,1846,1853,1839
336641,1886,1866,1855
336651,1877,1865,1861
336661,1872,1859,1855
336671,1872,1858,1856
336681,1850,1852,1843
336691,1873,1859,1854
336701,1872,1867,1854
336711,1870,1860,1858
336721,1872,1859,1856
336731,1850,1853,1851
336741,1872,1861,1861
336751,1873,1858,1853
336761,1876,1861,1858
336771,1872,1863,1857
336781,1846,1850,1850
336791,1866,1858,1862
336801,1877,1863,1856
336811,1882,1869,1859
336821,1872,1863,1860
336831,1847,1846,1849
336841,1870,1861,1861
336851,1879,1866,1865
336861,1889,1872,1865
336871,1875,1866,1862
336881,1843,1858,1861
336891,1879,1872,1881
336901,1897,1879,1895
336911,1918,1889,1907
336921,1904,1893,1923
336931,1874,1885,1923
336941,1910,1905,1957
336951,1919,1915,1962
336961,1938,1925,1972
336971,1925,1920,1969
336981,1889,1905,1959
336991,1911,1919,1959
337001,1919,1918,1958
337011,1929,1918,1952
337021,1913,1904,1934
337031,1903,1882,1902
337041,1888,1888,1901
337051,1889,1879,1894
337061,1905,1882,1882
337071,1886,1872,1867
337081,1905,1872,1841
337091,1869,1858,1850
337101,1870,1858,1843
337111,1884,1863,1841
337121,1861,1853,1838
337131,1871,1862,1853
337141,1857,1851,1839
337151,1866,1855,1845
337161,1891,1871,1857
337171,1875,1863,1853
337181,1877,1863,1872
337191,1861,1858,1857
337201,1859,1869,1866
337211,1888,1872,1873
337221,1888,1872,1871
337231,1887,1875,1879
337241,1871,1868,1874
337251,1883,1872,1878
337261,1903,1871,1883
337271,1886,1873,1879
337281,1889,1873,1887
337291,1867,1867,1872
337301,1873,1867,1872
337311,1903,1871,1872
337321,1885,1870,1863
337331,1881,1865,1865
337341,1857,1855,1847
337351,1877,1866,1855
337361,1894,1872,1861
337371,1878,1863,1857
337381,1870,1856,1853
337391,1851,1855,1843
337401,1872,1856,1843
337411,1872,1866,1856
337421,1874,1862,1853
337431,1873,1862,1854
337441,1857,1850,1845
337451,1869,1859,1856
337461,1877,1866,1865
337471,1881,1862,1861
337481,1876,1869,1858
337491,1850,1854,1850
337501,1872,1861,1862
337511,1866,1857,1859
337521,1883,1863,1863
337531,1879,1863,1862
337541,1855,1853,1847
337551,1872,1863,1859
337561,1875,1863,1867
337571,1884,1872,1874
337581,1885,1874,1883
337591,1868,1871,1878
337601,1886,1878,1897
337611,1887,1883,1901
337621,1908,1889,1915
337631,1905,1895,1922
337641,1885,1886,1914
337651,1904,1899,1923
337661,1909,1891,1927
337671,1921,1904,1933
337681,1907,1903,1925
337691,1877,1881,1909
337701,1900,1891,1908
337711,1897,1888,1905
337721,1904,1890,1899
337731,1898,1884,1889
337741,1856,1863,1865
337751,1876,1872,1868
337761,1872,1866,1858
337771,1891,1869,1856
337781,1874,1858,1849
337791,1833,1843,1827
337801,1858,1853,1840
337811,1861,1850,1835
337821,1878,1858,1845
337831,1869,1853,1841
337841,1845,1840,1829
337851,1859,1851,1840
337861,1871,1853,1847
337871,1888,1867,1862
337881,1878,1862,1861
337891,1873,1851,1853
337901,1866,1861,1862
337911,1876,1865,1872
337921,1891,1867,1877
337931,1887,1872,1872
337941,1887,1869,1858
337951,1873,1861,1871
337961,1883,1872,1871
337971,1898,1875,1872
337981,1878,1869,1871
337991,1873,1873,1859
338001,1872,1861,1862
338011,1875,1869,1859
338021,1887,1872,1867
338031,1869,1861,1853
338041,1893,1876,1841
338051,1859,1857,1852
338061,1874,1863,1857
338071,1873,1867,1863
338081,1874,1857,1855
338091,1872,1859,1856
338101,1857,1852,1850
338111,1872,1861,1854
338121,1872,1863,1861
338131,1875,1861,1856
338141,1872,1862,1852
338151,1865,1852,1849
338161,1872,1858,1856
338171,1896,1869,1859
338181,1872,1861,1859
338191,1872,1859,1856
338201,1850,1852,1851
338211,1872,1861,1861
338221,1889,1871,1870
338231,1872,1868,1865
338241,1872,1862,1861
338251,1856,1854,1856
338261,1874,1869,1860
338271,1879,1870,1867
338281,1873,1862,1862
338291,1872,1867,1856
338301,1851,1855,1856
338311,1871,1862,1856
338321,1872,1871,1869
338331,1870,1861,1856
338341,1872,1861,1857
338351,1847,1849,1853
338361,1871,1862,1855
338371,1879,1865,1856
338381,1872,1857,1856
338391,1869,1857,1853
338401,1847,1846,1846
338411,1871,1877,1857
338421,1872,1862,1858
338431,1872,1856,1856
338441,1872,1859,1849
338451,1855,1843,1841
338461,1867,1859,1853
338471,1873,1861,1850
338481,1871,1860,1854
338491,1871,1859,1854
338501,1846,1850,1841
338511,1873,1859,1859
338521,1872,1859,1856
338531,1869,1864,1859
338541,1872,1862,1861
338551,1851,1846,1840
338561,1869,1858,1856
338571,1872,1867,1857
338581,1872,1861,1862
338591,1873,1857,1857
338601,1840,1843,1853
338611,1866,1857,1856
338621,1872,1859,1859
338631,1876,1861,1859
338641,1874,1859,1862
338651,1841,1850,1847
338661,1865,1857,1855
338671,1872,1856,1855
338681,1883,1858,1857
338691,1872,1856,1858
338701,1837,1842,1843
338711,1871,1856,1856
338721,1872,1855,1856
338731,1877,1865,1862
338741,1875,1861,1859
338751,1840,1845,1846
338761,1867,1856,1857
338771,1872,1859,1861
338781,1884,1869,1862
338791,1875,1869,1861
338801,1872,1846,1846
338811,1865,1857,1854
338821,1872,1860,1857
338831,1891,1872,1867
338841,1879,1863,1866
338851,1905,1879,1856
338861,1872,1873,1872
338871,1887,1879,1891
338881,1908,1889,1906
338891,1904,1897,1921
338901,1910,1910,1941
338911,1904,1904,1939
338921,1916,1911,1957
338931,1935,1925,1970
338941,1927,1922,1970
338951,1940,1936,1984
338961,1907,1919,1966
338971,1925,1920,1962
338981,1930,1917,1952
338991,1911,1909,1937
339001,1907,1904,1927
339011,1885,1885,1904
339021,1894,1879,1899
339031,1910,1883,1890
339041,1885,1874,1872
339051,1879,1866,1863
339061,1859,1850,1851
339071,1862,1853,1850
339081,1884,1856,1843
339091,1872,1853,1840
339101,1873,1855,1840
339111,1853,1850,1836
339121,1867,1853,1845
339131,1887,1870,1855
339141,1877,1859,1854
339151,1882,1861,1857
339161,1857,1857,1858
339171,1881,1870,1867
339181,1886,1879,1883
339191,1881,1872,1875
339201,1874,1872,1879
339211,1866,1858,1871
339221,1884,1874,1882
339231,1885,1873,1889
339241,1890,1873,1878
339251,1888,1875,1879
339261,1855,1863,1869
339271,1868,1855,1863
339281,1874,1866,1872
339291,1882,1872,1870
339301,1879,1867,1862
339311,1847,1855,1847
339321,1871,1859,1858
339331,1875,1858,1855
339341,1878,1863,1870
339351,1874,1867,1859
339361,1846,1852,1849
339371,1872,1866,1851
339381,1872,1859,1853
339391,1881,1863,1858
339401,1879,1869,1858
339411,1852,1854,1845
339421,1870,1860,1855
339431,1872,1865,1861
339441,1869,1859,1857
339451,1872,1863,1857
339461,1855,1849,1853
339471,1872,1863,1862
339481,1877,1865,1863
339491,1890,1872,1870
339501,1885,1868,1867
339511,1850,1857,1855
339521,1872,1867,1867
339531,1881,1874,1874
339541,1899,1885,1888
339551,1885,1878,1890
339561,1862,1869,1890
339571,1895,1882,1905
339581,1901,1898,1910
339591,1919,1904,1934
339601,1909,1903,1925
339611,1879,1886,1919
339621,1899,1904,1930
339631,1913,1902,1929
339641,1911,1907,1934
339651,1909,1904,1918
339661,1867,1875,1898
339671,1890,1881,1902
339681,1895,1883,1898
339691,1907,1887,1893
339701,1890,1872,1878
339711,1879,1872,1856
339721,1870,1861,1856
339731,1883,1862,1850
339741,1885,1865,1854
339751,1870,1855,1843
339761,1859,1857,1840
339771,1861,1847,1838
339781,1863,1847,1840
339791,1882,1862,1852
339801,1872,1857,1849
339811,1871,1851,1843
339821,1853,1852,1845
339831,1872,1859,1858
339841,1887,1872,1872
339851,1877,1867,1872
339861,1872,1867,1870
339871,1859,1861,1871
339881,1885,1872,1872
339891,1895,1872,1885
339901,1883,1871,1875
339911,1876,1871,1872
339921,1863,1867,1867
339931,1885,1866,1869
339941,1895,1872,1873
339951,1878,1871,1869
339961,1871,1857,1859
339971,1861,1857,1856
339981,1878,1863,1861
339991,1891,1872,1865
340001,1874,1858,1856
340011,1872,1858,1855
340021,1858,1854,1846
340031,1872,1858,1855
340041,1883,1867,1858
340051,1873,1856,1856
340061,1871,1858,1856
340071,1852,1853,1843
340081,1871,1861,1853
340091,1878,1867,1858
340101,1872,1866,1856
340111,1871,1858,1856
340121,1851,1849,1847
340131,1875,1862,1855
340141,1872,1868,1862
340151,1868,1858,1861
340161,1877,1866,1863
340171,1858,1856,1859
340181,1877,1872,1875
340191,1885,1872,1886
340201,1894,1880,1897
340211,1895,1883,1905
340221,1879,1879,1909
340231,1902,1904,1928
340241,1915,1904,1935
340251,1914,1908,1936
340261,1911,1906,1936
340271,1889,1901,1927
340281,1907,1905,1936
340291,1914,1903,1931
340301,1903,1895,1921
340311,1893,1886,1909
340321,1875,1872,1891
340331,1893,1879,1893
340341,1891,1873,1883
340351,1891,1872,1875
340361,1887,1870,1872
340371,1855,1856,1854
340381,1866,1854,1856
340391,1872,1856,1856
340401,1866,1855,1843
340411,1875,1860,1845
340421,1847,1843,1838
340431,1871,1856,1843
340441,1872,1856,1840
340451,1866,1850,1843
340461,1872,1857,1856
340471,1824,1837,1829
340481,1867,1849,1843
340491,1856,1857,1857
340501,1873,1856,1861
340511,1869,1857,1867
340521,1844,1849,1856
340531,1890,1870,1872
340541,1894,1871,1875
340551,1899,1875,1879
340561,1891,1874,1874
340571,1855,1855,1855
340581,1873,1861,1868
340591,1881,1870,1865
340601,1895,1872,1870
340611,1887,1865,1865
340621,1898,1876,1847
340631,1872,1856,1856
340641,1872,1857,1856
340651,1898,1871,1862
340661,1874,1856,1854
340671,1877,1870,1854
340681,1856,1852,1845
340691,1872,1855,1846
340701,1875,1870,1857
340711,1871,1858,1850
340721,1861,1857,1865
340731,1857,1847,1847
340741,1872,1856,1850
340751,1874,1869,1867
340761,1862,1862,1855
340771,1877,1859,1866
340781,1854,1854,1851
340791,1875,1861,1859
340801,1872,1872,1872
340811,1870,1863,1861
340821,1872,1861,1865
340831,1851,1855,1858
340841,1863,1865,1862
340851,1895,1875,1868
340861,1877,1866,1866
340871,1878,1863,1862
340881,1855,1853,1860
340891,1881,1862,1866
340901,1895,1872,1863
340911,1878,1867,1863
340921,1886,1869,1867
340931,1863,1849,1854
340941,1875,1862,1857
340951,1885,1872,1871
340961,1884,1862,1863
340971,1879,1868,1859
340981,1853,1846,1849
340991,1872,1859,1861
341001,1877,1867,1867
341011,1879,1862,1856
341021,1872,1863,1859
341031,1840,1850,1851
341041,1875,1856,1853
341051,1872,1868,1857
341061,1879,1867,1863
341071,1874,1867,1861
341081,1843,1851,1849
341091,1872,1857,1854
341101,1869,1862,1858
341111,1884,1866,1866
341121,1874,1861,1857
341131,1841,1845,1845
341141,1871,1859,1859
341151,1874,1862,1857
341161,1886,1872,1863
341171,1877,1866,1858
341181,1847,1853,1842
341191,1862,1858,1856
341201,1872,1862,1859
341211,1887,1867,1865
341221,1884,1865,1859
341231,1847,1855,1845
341241,1871,1856,1855
341251,1872,1863,1861
341261,1892,1862,1865
341271,1875,1863,1863
341281,1840,1847,1840
341291,1867,1855,1859
341301,1881,1863,1859
341311,1886,1872,1866
341321,1874,1865,1859
341331,1841,1849,1846
341341,1869,1855,1855
341351,1874,1863,1856
341361,1891,1867,1870
341371,1879,1867,1862
341381,1843,1846,1841
341391,1870,1854,1858
341401,1877,1857,1856
341411,1895,1873,1872
341421,1874,1867,1864
341431,1870,1846,1842
341441,1860,1855,1856
341451,1873,1866,1865
341461,1894,1875,1882
341471,1878,1871,1881
341481,1911,1861,1884
341491,1889,1883,1904
341501,1895,1897,1927
341511,1922,1909,1950
341521,1927,1911,1959
341531,1923,1909,1964
341541,1921,1917,1963
341551,1933,1927,1971
341561,1948,1930,1982
341571,1937,1921,1968
341581,1933,1914,1959
341591,1914,1909,1938
341601,1917,1905,1936
341611,1924,1905,1930
341621,1908,1894,1911
341631,1890,1878,1892
341641,1871,1867,1872
341651,1895,1871,1873
341661,1895,1872,1869
341671,1879,1861,1854
341681,1872,1857,1845
341691,1860,1847,1837
341701,1872,1846,1839
341711,1884,1855,1845
341721,1871,1853,1840
341731,1862,1851,1841
341741,1848,1845,1839
341751,1874,1855,1846
341761,1891,1867,1862
341771,1875,1867,1858
341781,1872,1866,1863
341791,1857,1857,1865
341801,1883,1871,1872
341811,1901,1878,1878
341821,1881,1871,1876
341831,1872,1870,1874
341841,1863,1863,1871
341851,1885,1874,1878
341861,1892,1875,1883
341871,1886,1872,1877
341881,1879,1872,1872
341891,1861,1855,1856
341901,1883,1871,1866
341911,1879,1871,1872
341921,1879,1862,1859
341931,1874,1862,1861
341941,1849,1849,1852
341951,1870,1862,1855
341961,1877,1865,1858
341971,1874,1863,1858
341981,1872,1856,1851
341991,1841,1846,1842
342001,1871,1859,1851
342011,1872,1858,1854
342021,1859,1856,1856
342031,1859,1856,1856
342041,1845,1851,1842
342051,1872,1863,1858
342061,1879,1859,1857
342071,1873,1862,1857
342081,1869,1859,1857
342091,1855,1853,1849
342101,1872,1862,1856
342111,1872,1870,1859
342121,1875,1865,1857
342131,1866,1859,1865
342141,1854,1851,1856
342151,1870,1861,1870
342161,1882,1872,1877
342171,1902,1876,1885
342181,1891,1879,1892
342191,1859,1872,1894
342201,1893,1888,1906
342211,1897,1889,1917
342221,1909,1895,1923
342231,1904,1898,1930
342241,1873,1886,1913
342251,1904,1895,1922
342261,1915,1899,1930
342271,1929,1905,1926
342281,1917,1898,1910
342291,1888,1873,1891
342301,1901,1879,1891
342311,1892,1878,1883
342321,1905,1877,1877
342331,1875,1871,1872
342341,1904,1851,1848
342351,1856,1856,1852
342361,1877,1857,1849
342371,1890,1857,1846
342381,1872,1857,1853
342391,1892,1870,1821
342401,1852,1837,1834
342411,1871,1849,1837
342421,1873,1857,1847
342431,1872,1854,1841
342441,1870,1866,1841
342451,1858,1849,1845
342461,1872,1863,1853
342471,1886,1872,1869
342481,1884,1867,1865
342491,1891,1878,1881
342501,1868,1861,1875
342511,1878,1869,1872
342521,1885,1871,1877
342531,1887,1868,1872
342541,1890,1871,1886
342551,1862,1853,1867
342561,1877,1863,1871
342571,1890,1872,1872
342581,1881,1870,1867
342591,1878,1865,1866
342601,1858,1853,1854
342611,1872,1856,1855
342621,1895,1869,1856
342631,1877,1859,1857
342641,1872,1860,1855
342651,1849,1846,1843
342661,1865,1859,1850
342671,1889,1877,1865
342681,1872,1861,1851
342691,1874,1861,1860
342701,1841,1847,1847
342711,1872,1861,1850
342721,1877,1870,1863
342731,1876,1865,1855
342741,1872,1862,1858
342751,1846,1851,1847
342761,1872,1868,1857
342771,1872,1870,1871
342781,1882,1872,1863
342791,1877,1865,1867
342801,1853,1853,1852
342811,1874,1868,1858
342821,1873,1865,1861
342831,1882,1871,1867
342841,1879,1863,1860
342851,1853,1854,1853
342861,1872,1858,1859
342871,1873,1866,1857
342881,1887,1869,1862
342891,1871,1863,1862
342901,1843,1844,1851
342911,1867,1855,1858
342921,1866,1862,1857
342931,1886,1871,1862
342941,1877,1867,1857
342951,1849,1845,1841
342961,1866,1855,1856
342971,1867,1855,1850
342981,1884,1861,1859
342991,1875,1858,1857
343001,1841,1841,1840
343011,1855,1856,1853
343021,1871,1857,1858
343031,1887,1871,1863
343041,1876,1860,1862
343051,1845,1842,1846
343061,1866,1854,1847
343071,1869,1859,1857
343081,1883,1871,1862
343091,1874,1859,1855
343101,1840,1844,1849
343111,1866,1856,1858
343121,1874,1865,1859
343131,1895,1872,1867
343141,1875,1859,1858
343151,1839,1843,1841
343161,1871,1854,1854
343171,1874,1866,1856
343181,1895,1871,1871
343191,1879,1859,1859
343201,1846,1843,1841
343211,1863,1851,1854
343221,1870,1854,1864
343231,1881,1867,1867
343241,1876,1861,1862
343251,1899,1850,1843
343261,1858,1856,1852
343271,1878,1866,1857
343281,1894,1874,1869
343291,1878,1862,1865
343301,1878,1872,1849
343311,1857,1857,1854
343321,1863,1863,1857
343331,1897,1872,1870
343341,1877,1861,1858
343351,1871,1871,1867
343361,1851,1856,1856
343371,1872,1867,1856
343381,1876,1872,1867
343391,1872,1859,1861
343401,1872,1862,1872
343411,1858,1855,1855
343421,1875,1863,1856
343431,1895,1872,1871
343441,1878,1867,1859
343451,1878,1868,1866
343461,1859,1859,1864
343471,1894,1872,1876
343481,1909,1886,1897
343491,1895,1886,1906
343501,1901,1879,1925
343511,1898,1890,1933
343521,1931,1903,1951
343531,1942,1918,1968
343541,1942,1915,1971
343551,1943,1915,1974
343561,1913,1904,1968
343571,1943,1913,1974
343581,1946,1915,1972
343591,1936,1904,1955
343601,1924,1895,1938
343611,1897,1874,1918
343621,1915,1886,1907
343631,1905,1886,1904
343641,1893,1872,1887
343651,1890,1872,1872
343661,1867,1852,1853
343671,1881,1861,1854
343681,1878,1857,1851
343691,1872,1853,1841
343701,1869,1853,1840
343711,1840,1840,1829
343721,1866,1850,1837
343731,1871,1855,1842
343741,1868,1850,1843
343751,1865,1850,1851
343761,1840,1842,1845
343771,1871,1858,1858
343781,1875,1867,1866
343791,1879,1865,1867
343801,1875,1862,1873
343811,1853,1855,1865
343821,1883,1869,1875
343831,1886,1872,1875
343841,1885,1872,1873
343851,1885,1871,1874
343861,1846,1855,1862
343871,1876,1869,1872
343881,1887,1869,1872
343891,1889,1872,1869
343901,1877,1870,1859
343911,1842,1851,1849
343921,1867,1857,1854
343931,1874,1861,1859
343941,1887,1870,1859
343951,1872,1861,1854
343961,1834,1845,1840
343971,1861,1857,1846
343981,1872,1859,1856
343991,1883,1863,1857
344001,1872,1857,1856
344011,1834,1840,1839
344021,1867,1856,1855
344031,1871,1862,1856
344041,1886,1867,1867
344051,1873,1862,1863
344061,1840,1847,1841
344071,1872,1862,1856
344081,1878,1866,1857
344091,1901,1872,1868
344101,1874,1862,1867
344111,1851,1845,1843
344121,1870,1862,1856
344131,1872,1862,1865
344141,1898,1873,1865
344151,1872,1863,1867
344161,1904,1872,1855
344171,1863,1860,1867
344181,1879,1869,1871
344191,1894,1883,1892
344201,1898,1872,1891
344211,1927,1891,1886
344221,1887,1874,1908
344231,1899,1887,1920
344241,1920,1891,1932
344251,1920,1892,1934
344261,1934,1908,1946
344271,1904,1892,1926
344281,1923,1894,1930
344291,1934,1903,1926
344301,1917,1892,1923
344311,1909,1893,1924
344321,1884,1877,1890
344331,1903,1878,1890
344341,1921,1883,1885
344351,1892,1873,1875
344361,1891,1870,1870
344371,1857,1854,1847
344381,1868,1863,1846
344391,1877,1872,1851
344401,1872,1858,1841
344411,1871,1858,1840
344421,1841,1844,1833
344431,1865,1852,1840
344441,1867,1863,1853
344451,1872,1855,1842
344461,1866,1860,1853
344471,1845,1849,1844
344481,1872,1865,1856
344491,1870,1863,1872
344501,1883,1870,1869
344511,1876,1870,1871
344521,1856,1858,1861
344531,1872,1871,1871
344541,1886,1869,1872
344551,1891,1872,1878
344561,1871,1866,1871
344571,1854,1851,1856
344581,1862,1861,1868
344591,1865,1860,1860
344601,1898,1869,1867
344611,1881,1870,1862
344621,1855,1849,1843
344631,1872,1859,1857
344641,1870,1860,1856
344651,1888,1863,1861
344661,1872,1862,1854
344671,1842,1841,1840
344681,1861,1856,1847
344691,1872,1856,1849
344701,1883,1860,1857
344711,1872,1859,1855
344721,1826,1845,1840
344731,1851,1846,1850
344741,1867,1859,1853
344751,1891,1872,1861
344761,1875,1860,1856
344771,1842,1851,1850
344781,1853,1859,1852
344791,1872,1869,1855
344801,1893,1871,1869
344811,1872,1866,1856
344821,1838,1849,1843
344831,1861,1857,1853
344841,1872,1866,1855
344851,1888,1871,1871
344861,1881,1866,1867
344871,1853,1855,1859
344881,1873,1872,1882
344891,1887,1875,1895
344901,1913,1890,1914
344911,1904,1887,1917
344921,1881,1871,1909
344931,1906,1891,1933
344941,1919,1899,1936
344951,1936,1909,1951
344961,1920,1903,1937
344971,1927,1882,1918
344981,1893,1887,1916
344991,1910,1892,1919
345001,1919,1895,1909
345011,1903,1884,1893
345021,1918,1885,1869
345031,1873,1869,1870
345041,1881,1872,1861
345051,1873,1863,1861
345061,1862,1861,1852
345071,1872,1872,1838
345081,1843,1850,1827
345091,1861,1853,1826
345101,1865,1856,1840
345111,1865,1855,1834
345121,1858,1861,1847
345131,1845,1844,1830
345141,1867,1854,1838
345151,1881,1859,1851
345161,1872,1860,1851
345171,1870,1861,1856
345181,1859,1857,1855
345191,1877,1867,1870
345201,1903,1881,1875
345211,1881,1872,1873
345221,1874,1870,1875
345231,1859,1862,1868
345241,1877,1873,1872
345251,1882,1877,1882
345261,1875,1872,1872
345271,1873,1872,1869
345281,1851,1857,1856
345291,1859,1863,1857
345301,1887,1872,1870
345311,1872,1859,1857
345321,1875,1863,1857
345331,1846,1854,1841
345341,1870,1866,1854
345351,1872,1867,1855
345361,1870,1865,1853
345371,1872,1861,1849
345381,1843,1853,1842
345391,1872,1861,1854
345401,1872,1859,1851
345411,1872,1860,1853
345421,1869,1861,1849
345431,1846,1853,1840
345441,1870,1858,1855
345451,1872,1861,1860
345461,1872,1860,1852
345471,1872,1859,1856
345481,1849,1850,1843
345491,1863,1858,1857
345501,1872,1859,1858
345511,1879,1862,1855
345521,1867,1866,1861
345531,1840,1851,1850
345541,1876,1870,1872
345551,1879,1873,1878
345561,1889,1872,1890
345571,1890,1881,1889
345581,1865,1872,1888
345591,1894,1893,1916
345601,1904,1890,1937
345611,1919,1902,1933
345621,1906,1880,1931
345631,1881,1877,1919
345641,1909,1895,1927
345651,1906,1890,1919
345661,1923,1899,1914
345671,1903,1887,1905
345681,1866,1872,1877
345691,1879,1874,1881
345701,1888,1874,1875
345711,1892,1881,1872
345721,1877,1869,1855
345731,1831,1847,1835
345741,1857,1853,1840
345751,1865,1854,1837
345761,1879,1857,1843
345771,1860,1854,1830
345781,1837,1840,1818
345791,1846,1851,1831
345801,1857,1850,1838
345811,1883,1863,1853
345821,1866,1861,1846
345831,1879,1840,1840
345841,1851,1854,1854
345851,1870,1870,1866
345861,1893,1872,1872
345871,1872,1872,1871
345881,1905,1885,1855
345891,1863,1861,1868
345901,1872,1872,1875
345911,1887,1876,1879
345921,1888,1871,1869
345931,1887,1882,1880
345941,1866,1860,1857
345951,1872,1866,1859
345961,1888,1869,1872
345971,1877,1865,1858
345981,1879,1872,1872
345991,1856,1855,1847
346001,1872,1857,1853
346011,1885,1869,1853
346021,1872,1859,1856
346031,1872,1859,1858
346041,1850,1851,1842
346051,1863,1858,1853
346061,1884,1867,1861
346071,1875,1866,1854
346081,1871,1862,1858
346091,1845,1851,1851
346101,1855,1857,1858
346111,1858,1872,1862
346121,1878,1867,1863
346131,1874,1864,1859
346141,1845,1850,1851
346151,1867,1865,1857
346161,1880,1867,1871
346171,1879,1872,1861
346181,1875,1866,1866
346191,1849,1857,1853
346201,1875,1862,1863
346211,1875,1861,1867
346221,1885,1867,1871
346231,1878,1863,1862
346241,1850,1850,1845
346251,1866,1858,1856
346261,1868,1863,1855
346271,1887,1867,1860
346281,1871,1863,1857
346291,1841,1843,1840
346301,1859,1859,1845
346311,1871,1861,1853
346321,1886,1865,1855
346331,1872,1858,1854
346341,1841,1849,1840
346351,1862,1861,1845
346361,1867,1861,1858
346371,1889,1869,1859
346381,1872,1865,1855
346391,1841,1847,1841
346401,1859,1860,1855
346411,1870,1861,1853
346421,1888,1872,1869
346431,1872,1861,1860
346441,1840,1847,1845
346451,1863,1861,1851
346461,1879,1859,1856
346471,1893,1874,1867
346481,1873,1862,1862
346491,1839,1850,1845
346501,1866,1859,1850
346511,1872,1859,1858
346521,1881,1870,1867
346531,1873,1863,1859
346541,1837,1841,1845
346551,1867,1858,1855
346561,1874,1865,1859
346571,1887,1869,1865
346581,1875,1859,1861
346591,1826,1845,1840
346601,1846,1855,1852
346611,1857,1859,1856
346621,1873,1868,1861
346631,1872,1860,1857
346641,1883,1845,1845
346651,1847,1855,1849
346661,1865,1857,1856
346671,1887,1867,1864
346681,1866,1861,1863
346691,1911,1858,1845
346701,1875,1865,1858
346711,1868,1861,1861
346721,1897,1873,1872
346731,1871,1863,1862
346741,1903,1881,1857
346751,1856,1857,1853
346761,1872,1859,1861
346771,1904,1872,1870
346781,1877,1871,1871
346791,1887,1875,1887
346801,1879,1870,1874
346811,1904,1875,1898
346821,1919,1886,1910
346831,1907,1890,1925
346841,1915,1893,1936
346851,1901,1893,1941
346861,1921,1906,1965
346871,1943,1921,1970
346881,1931,1909,1977
346891,1931,1914,1973
346901,1905,1903,1963
346911,1922,1905,1966
346921,1930,1918,1962
346931,1914,1902,1939
346941,1904,1899,1923
346951,1882,1875,1906
346961,1898,1881,1900
346971,1894,1879,1892
346981,1882,1872,1876
346991,1872,1867,1858
347001,1849,1851,1841
347011,1867,1859,1847
347021,1872,1862,1844
347031,1865,1857,1837
347041,1868,1856,1835
347051,1836,1843,1831
347061,1866,1857,1839
347071,1872,1858,1841
347081,1867,1859,1845
347091,1870,1859,1850
347101,1841,1847,1845
347111,1870,1859,1858
347121,1872,1870,1867
347131,1884,1865,1870
347141,1877,1869,1872
347151,1854,1853,1857
347161,1878,1867,1872
347171,1875,1872,1872
347181,1891,1871,1872
347191,1883,1869,1874
347201,1848,1853,1856
347211,1878,1867,1864
347221,1882,1872,1870
347231,1878,1869,1863
347241,1868,1860,1862
347251,1838,1851,1841
347261,1869,1858,1853
347271,1869,1858,1853
347281,1876,1866,1858
347291,1871,1862,1846
347301,1835,1842,1834
347311,1859,1854,1851
347321,1872,1866,1855
347331,1874,1861,1848
347341,1871,1857,1854
347351,1841,1842,1840
347361,1861,1861,1853
347371,1877,1866,1857
347381,1884,1870,1858
347391,1875,1863,1855
347401,1903,1849,1840
347411,1871,1860,1855
347421,1879,1861,1857
347431,1888,1872,1862
347441,1878,1867,1861
347451,1887,1881,1845
347461,1868,1863,1861
347471,1872,1872,1872
347481,1894,1874,1888
347491,1881,1872,1889
347501,1899,1889,1907
347511,1891,1875,1907
347521,1901,1883,1913
347531,1922,1907,1936
347541,1907,1898,1933
347551,1910,1904,1939
347561,1897,1887,1931
347571,1918,1902,1935
347581,1926,1904,1931
347591,1919,1898,1921
347601,1889,1881,1904
347611,1861,1872,1889
347621,1875,1873,1883
347631,1887,1877,1884
347641,1898,1876,1876
347651,1872,1867,1865
347661,1845,1856,1847
347671,1863,1854,1846
347681,1883,1866,1851
347691,1888,1862,1846
347701,1889,1868,1844
347711,1859,1849,1831
347721,1857,1856,1840
347731,1873,1869,1850
347741,1872,1858,1843
347751,1882,1861,1849
347761,1851,1846,1840
347771,1872,1855,1851
347781,1887,1867,1869
347791,1875,1866,1866
347801,1875,1863,1872
347811,1856,1856,1860
347821,1879,1866,1871
347831,1872,1869,1878
347841,1899,1875,1874
347851,1891,1875,1878
347861,1847,1856,1860
347871,1885,1871,1872
347881,1874,1869,1872
347891,1883,1872,1863
347901,1872,1863,1861
347911,1843,1847,1841
347921,1869,1866,1856
347931,1873,1858,1853
347941,1898,1871,1857
347951,1872,1861,1851
347961,1843,1842,1840
347971,1856,1858,1847
347981,1868,1859,1850
347991,1875,1866,1854
348001,1872,1857,1855
348011,1842,1841,1838
348021,1866,1858,1847
348031,1872,1859,1855
348041,1883,1865,1858
348051,1885,1867,1857
348061,1836,1847,1841
348071,1861,1861,1856
348081,1877,1867,1859
348091,1905,1873,1879
348101,1895,1879,1885
348111,1864,1866,1878
348121,1885,1872,1898
348131,1889,1885,1914
348141,1926,1904,1934
348151,1918,1902,1936
348161,1900,1886,1929
348171,1898,1895,1936
348181,1911,1891,1938
348191,1935,1907,1942
348201,1925,1902,1936
348211,1930,1888,1915
348221,1906,1889,1915
348231,1906,1886,1904
348241,1911,1891,1903
348251,1889,1874,1885
348261,1888,1880,1865
348271,1875,1869,1865
348281,1879,1865,1854
348291,1895,1872,1857
348301,1873,1859,1843
348311,1865,1856,1850
348321,1851,1850,1829
348331,1861,1856,1837
348341,1874,1865,1840
348351,1867,1854,1840
348361,1859,1856,1837
348371,1851,1850,1830
348381,1865,1856,1844
348391,1881,1861,1855
348401,1874,1858,1857
348411,1869,1859,1861
348421,1861,1858,1855
348431,1878,1868,1866
348441,1897,1872,1874
348451,1883,1872,1872
348461,1872,1869,1870
348471,1857,1862,1865
348481,1878,1865,1872
348491,1890,1875,1874
348501,1877,1871,1870
348511,1874,1863,1870
348521,1850,1857,1856
348531,1875,1865,1857
348541,1876,1866,1866
348551,1874,1861,1854
348561,1870,1856,1855
348571,1841,1851,1846
348581,1874,1857,1847
348591,1873,1862,1854
348601,1870,1856,1851
348611,1867,1858,1851
348621,1846,1845,1842
348631,1869,1858,1845
348641,1872,1863,1856
348651,1871,1860,1854
348661,1870,1868,1852
348671,1845,1847,1850
348681,1868,1857,1851
348691,1872,1885,1853
348701,1871,1862,1859
348711,1866,1862,1867
348721,1851,1852,1857
348731,1872,1870,1882
348741,1879,1872,1889
348751,1901,1885,1905
348761,1904,1889,1918
348771,1886,1875,1911
348781,1905,1900,1925
348791,1920,1902,1936
348801,1921,1904,1936
348811,1919,1898,1936
348821,1883,1884,1919
348831,1906,1895,1917
348841,1905,1890,1911
348851,1907,1890,1906
348861,1899,1885,1895
348871,1856,1861,1872
348881,1880,1872,1873
348891,1885,1870,1866
348901,1879,1867,1856
348911,1872,1866,1847
348921,1838,1840,1827
348931,1863,1851,1834
348941,1862,1856,1840
348951,1872,1851,1834
348961,1863,1845,1826
348971,1840,1835,1813
348981,1859,1842,1838
348991,1861,1856,1837
349001,1873,1858,1846
349011,1866,1859,1843
349021,1878,1841,1839
349031,1862,1859,1853
349041,1876,1865,1859
349051,1887,1871,1872
349061,1887,1869,1870
349071,1899,1878,1857
349081,1863,1857,1867
349091,1876,1869,1870
349101,1902,1874,1872
349111,1882,1872,1867
349121,1883,1876,1872
349131,1857,1861,1859
349141,1873,1863,1859
349151,1880,1869,1866
349161,1877,1862,1858
349171,1877,1867,1856
349181,1857,1855,1841
349191,1863,1855,1850
349201,1878,1862,1858
349211,1871,1862,1847
349221,1872,1856,1845
349231,1849,1856,1840
349241,1871,1860,1847
349251,1891,1859,1853
349261,1873,1859,1850
349271,1872,1856,1851
349281,1843,1853,1840
349291,1868,1862,1853
349301,1890,1871,1858
349311,1872,1860,1856
349321,1873,1860,1857
349331,1851,1849,1853
349341,1872,1865,1862
349351,1887,1878,1873
349361,1890,1872,1878
349371,1885,1872,1892
349381,1871,1861,1889
349391,1899,1886,1905
349401,1908,1895,1933
349411,1915,1898,1933
349421,1902,1895,1932
349431,1890,1881,1935
349441,1904,1895,1934
349451,1904,1897,1936
349461,1910,1902,1933
349471,1910,1888,1920
349481,1882,1875,1904
349491,1903,1883,1904
349501,1890,1882,1891
349511,1895,1877,1887
349521,1885,1872,1872
349531,1852,1856,1849
349541,1872,1863,1854
349551,1870,1857,1840
349561,1878,1859,1842
349571,1865,1857,1838
349581,1846,1840,1822
349591,1856,1846,1830
349601,1867,1855,1831
349611,1885,1859,1840
349621,1872,1855,1840
349631,1840,1843,1834
349641,1858,1856,1841
349651,1873,1859,1850
349661,1872,1866,1856
349671,1867,1861,1858
349681,1839,1849,1847
349691,1870,1862,1863
349701,1870,1863,1870
349711,1889,1873,1871
349721,1879,1870,1870
349731,1849,1855,1862
349741,1867,1858,1867
349751,1872,1863,1867
349761,1898,1873,1873
349771,1877,1870,1861
349781,1854,1847,1845
349791,1867,1867,1851
349801,1873,1858,1854
349811,1898,1872,1863
349821,1872,1855,1850
349831,1887,1841,1837
349841,1862,1856,1843
349851,1872,1863,1850
349861,1894,1871,1859
349871,1882,1866,1855
349881,1873,1863,1843
349891,1855,1851,1845
349901,1872,1855,1847
349911,1893,1867,1859
349921,1870,1856,1851
349931,1861,1853,1861
349941,1855,1851,1849
349951,1870,1857,1855
349961,1887,1872,1871
349971,1872,1867,1864
349981,1874,1861,1867
349991,1877,1861,1872
350001,1898,1875,1890
350011,1910,1883,1911
350021,1892,1885,1911
350031,1903,1890,1917
350041,1891,1883,1920
350051,1913,1898,1933
350061,1930,1906,1936
350071,1919,1904,1934
350081,1905,1893,1920
350091,1890,1884,1915
350101,1904,1892,1917
350111,1917,1898,1914
350121,1901,1887,1898
350131,1895,1877,1890
350141,1867,1869,1871
350151,1886,1872,1868
350161,1882,1872,1859
350171,1872,1857,1847
350181,1863,1854,1837
350191,1841,1840,1825
350201,1866,1853,1835
350211,1858,1856,1840
350221,1862,1854,1839
350231,1857,1853,1834
350241,1845,1843,1821
350251,1861,1855,1841
350261,1867,1860,1846
350271,1869,1856,1851
350281,1877,1863,1858
350291,1845,1846,1847
350301,1882,1871,1867
350311,1882,1870,1872
350321,1876,1872,1870
350331,1879,1871,1874
350341,1858,1855,1854
350351,1881,1871,1872
350361,1891,1873,1877
350371,1883,1871,1872
350381,1877,1870,1868
350391,1849,1858,1851
350401,1874,1863,1859
350411,1866,1863,1858
350421,1867,1858,1855
350431,1874,1869,1858
350441,1847,1842,1841
350451,1863,1860,1855
350461,1858,1857,1846
350471,1861,1855,1843
350481,1862,1861,1842
350491,1824,1841,1833
350501,1860,1859,1849
350511,1870,1861,1850
350521,1871,1862,1849
350531,1872,1862,1851
350541,1840,1849,1841
350551,1870,1855,1846
350561,1874,1862,1856
350571,1883,1871,1865
350581,1875,1869,1865
350591,1855,1851,1851
350601,1872,1870,1872
350611,1883,1875,1884
350621,1907,1882,1901
350631,1903,1886,1906
350641,1936,1881,1902
350651,1899,1894,1921
350661,1917,1899,1935
350671,1919,1904,1938
350681,1904,1900,1936
350691,1936,1915,1925
350701,1902,1903,1930
350711,1905,1901,1921
350721,1924,1903,1923
350731,1909,1897,1907
350741,1905,1889,1913
350751,1889,1872,1887
350761,1888,1873,1875
