timestamp_ms_device,ppg_finger1,ppg_finger2,ppg_finger3
2318855,1905,1870,1941
2318865,1904,1871,1938
2318875,1901,1867,1936
2318885,1898,1866,1931
2318895,1894,1866,1919
2318905,1887,1858,1914
2318915,1879,1859,1904
2318925,1875,1856,1904
2318935,1870,1856,1886
2318945,1866,1856,1875
2318955,1861,1854,1870
2318965,1857,1852,1859
2318975,1855,1851,1858
2318985,1852,1852,1850
2318995,1850,1854,1847
2319005,1849,1853,1847
2319015,1851,1855,1847
2319025,1853,1856,1849
2319035,1851,1855,1847
2319045,1854,1857,1851
2319055,1855,1858,1854
2319065,1857,1861,1860
2319075,1858,1858,1858
2319085,1863,1862,1857
2319095,1863,1862,1861
2319105,1865,1864,1862
2319115,1867,1862,1865
2319125,1867,1859,1863
2319135,1867,1859,1859
2319145,1867,1860,1861
2319155,1865,1858,1858
2319165,1866,1855,1856
2319175,1863,1856,1856
2319185,1863,1856,1854
2319195,1863,1858,1854
2319205,1861,1858,1849
2319215,1858,1858,1849
2319225,1859,1856,1844
2319235,1857,1858,1846
2319245,1856,1856,1846
2319255,1858,1859,1845
2319265,1859,1858,1849
2319275,1863,1862,1855
2319285,1865,1863,1859
2319295,1871,1865,1868
2319305,1871,1867,1875
2319315,1872,1866,1881
2319325,1873,1870,1891
2319335,1875,1869,1902
2319345,1879,1870,1904
2319355,1878,1872,1907
2319365,1881,1871,1909
2319375,1879,1870,1908
2319385,1879,1869,1906
2319395,1878,1868,1904
2319405,1876,1867,1899
2319415,1875,1863,1893
2319425,1873,1866,1886
2319435,1872,1858,1879
2319445,1870,1857,1872
2319455,1872,1856,1862
2319465,1868,1858,1855
2319475,1866,1856,1849
2319485,1866,1855,1842
2319495,1866,1854,1840
2319505,1866,1855,1840
2319515,1865,1856,1833
2319525,1865,1855,1831
2319535,1865,1857,1834
2319545,1866,1858,1830
2319555,1863,1856,1830
2319565,1867,1856,1831
2319575,1867,1858,1835
2319585,1870,1859,1837
2319595,1868,1858,1840
2319605,1871,1858,1840
2319615,1868,1859,1841
2319625,1872,1860,1843
2319635,1872,1859,1842
2319645,1870,1861,1843
2319655,1871,1862,1843
2319665,1872,1859,1846
2319675,1869,1861,1845
2319685,1869,1860,1845
2319695,1871,1858,1846
2319705,1872,1861,1845
2319715,1870,1857,1846
2319725,1870,1858,1840
2319735,1867,1857,1843
2319745,1870,1857,1845
2319755,1869,1856,1840
2319765,1869,1861,1845
2319775,1872,1859,1845
2319785,1872,1861,1847
2319795,1872,1861,1851
2319805,1874,1867,1856
2319815,1874,1866,1863
2319825,1881,1867,1872
2319835,1881,1871,1877
2319845,1883,1872,1886
2319855,1890,1876,1893
2319865,1890,1873,1899
2319875,1892,1867,1904
2319885,1893,1873,1904
2319895,1892,1872,1904
2319905,1889,1870,1903
2319915,1890,1873,1903
2319925,1887,1870,1898
2319935,1883,1868,1890
2319945,1883,1865,1884
2319955,1879,1856,1877
2319965,1877,1863,1872
2319975,1873,1862,1867
2319985,1872,1862,1857
2319995,1870,1857,1850
2320005,1870,1856,1852
2320015,1867,1856,1849
2320025,1863,1853,1840
2320035,1863,1853,1840
2320045,1867,1854,1840
2320055,1863,1855,1840
2320065,1865,1856,1843
2320075,1866,1856,1841
2320085,1863,1857,1840
2320095,1869,1859,1845
2320105,1870,1857,1844
2320115,1871,1859,1842
2320125,1871,1858,1845
2320135,1872,1858,1845
2320145,1872,1859,1846
2320155,1871,1860,1846
2320165,1871,1859,1845
2320175,1870,1857,1847
2320185,1869,1856,1843
2320195,1866,1857,1843
2320205,1862,1858,1842
2320215,1866,1857,1840
2320225,1860,1858,1840
2320235,1863,1857,1839
2320245,1857,1856,1839
2320255,1859,1856,1839
2320265,1861,1856,1840
2320275,1861,1858,1840
2320285,1862,1860,1842
2320295,1867,1861,1851
2320305,1868,1866,1856
2320315,1872,1872,1867
2320325,1878,1872,1873
2320335,1879,1875,1885
2320345,1889,1873,1897
2320355,1892,1879,1895
2320365,1895,1879,1904
2320375,1899,1882,1904
2320385,1897,1878,1909
2320395,1897,1878,1907
2320405,1895,1873,1904
2320415,1891,1872,1899
2320425,1893,1873,1894
2320435,1887,1870,1890
2320445,1882,1869,1881
2320455,1878,1870,1874
2320465,1874,1865,1869
2320475,1873,1863,1861
2320485,1871,1861,1856
2320495,1867,1859,1851
2320505,1867,1856,1847
2320515,1862,1856,1841
2320525,1864,1855,1840
2320535,1863,1857,1836
2320545,1861,1856,1837
2320555,1863,1859,1834
2320565,1861,1856,1837
2320575,1865,1858,1838
2320585,1863,1857,1838
2320595,1863,1860,1839
2320605,1866,1858,1840
2320615,1866,1859,1840
2320625,1871,1859,1844
2320635,1867,1861,1842
2320645,1870,1859,1842
2320655,1870,1858,1846
2320665,1870,1861,1840
2320675,1871,1863,1843
2320685,1871,1863,1847
2320695,1867,1857,1847
2320705,1869,1858,1843
2320715,1866,1858,1841
2320725,1866,1859,1841
2320735,1867,1856,1843
2320745,1868,1856,1843
2320755,1864,1856,1840
2320765,1865,1856,1840
2320775,1866,1859,1841
2320785,1870,1859,1849
2320795,1871,1863,1849
2320805,1872,1869,1859
2320815,1878,1872,1867
2320825,1884,1873,1872
2320835,1887,1877,1879
2320845,1889,1877,1885
2320855,1893,1881,1891
2320865,1894,1886,1898
2320875,1897,1887,1902
2320885,1897,1887,1904
2320895,1901,1886,1902
2320905,1898,1881,1901
2320915,1893,1883,1893
2320925,1894,1878,1895
2320935,1888,1872,1889
2320945,1887,1872,1879
2320955,1879,1869,1874
2320965,1874,1867,1868
2320975,1877,1862,1863
2320985,1871,1862,1855
2320995,1869,1856,1851
2321005,1867,1854,1845
2321015,1863,1855,1842
2321025,1862,1857,1840
2321035,1859,1856,1839
2321045,1862,1853,1838
2321055,1859,1854,1838
2321065,1861,1856,1835
2321075,1859,1855,1840
2321085,1861,1856,1840
2321095,1863,1857,1838
2321105,1863,1857,1840
2321115,1867,1861,1840
2321125,1866,1860,1842
2321135,1867,1859,1842
2321145,1867,1859,1842
2321155,1869,1859,1846
2321165,1871,1859,1846
2321175,1869,1859,1846
2321185,1865,1858,1848
2321195,1866,1857,1846
2321205,1866,1853,1851
2321215,1867,1856,1849
2321225,1863,1855,1847
2321235,1866,1857,1847
2321245,1862,1853,1849
2321255,1859,1853,1847
2321265,1861,1854,1845
2321275,1860,1856,1851
2321285,1866,1858,1854
2321295,1865,1861,1857
2321305,1872,1869,1865
2321315,1877,1871,1872
2321325,1883,1873,1877
2321335,1890,1877,1889
2321345,1893,1884,1897
2321355,1901,1886,1903
2321365,1902,1885,1905
2321375,1904,1890,1905
2321385,1904,1888,1907
2321395,1903,1883,1907
2321405,1899,1887,1904
2321415,1897,1876,1898
2321425,1891,1878,1888
2321435,1886,1872,1887
2321445,1879,1871,1875
2321455,1877,1865,1871
2321465,1871,1861,1859
2321475,1866,1856,1853
2321485,1859,1856,1843
2321495,1857,1853,1840
2321505,1856,1849,1837
2321515,1857,1850,1831
2321525,1853,1847,1830
2321535,1855,1844,1829
2321545,1854,1847,1830
2321555,1853,1850,1829
2321565,1854,1848,1831
2321575,1856,1852,1838
2321585,1858,1851,1840
2321595,1858,1852,1840
2321605,1856,1855,1842
2321615,1861,1855,1845
2321625,1858,1856,1846
2321635,1863,1854,1847
2321645,1858,1854,1851
2321655,1859,1855,1850
2321665,1862,1857,1854
2321675,1861,1856,1851
2321685,1859,1852,1850
2321695,1857,1855,1850
2321705,1857,1854,1851
2321715,1858,1853,1846
2321725,1859,1851,1843
2321735,1861,1853,1845
2321745,1858,1856,1847
2321755,1862,1853,1847
2321765,1862,1854,1844
2321775,1863,1855,1842
2321785,1861,1856,1841
2321795,1865,1855,1842
2321805,1865,1856,1847
2321815,1866,1859,1845
2321825,1871,1859,1847
2321835,1872,1865,1854
2321845,1874,1867,1860
2321855,1879,1872,1867
2321865,1881,1873,1872
2321875,1888,1877,1881
2321885,1893,1882,1891
2321895,1903,1890,1893
2321905,1903,1889,1900
2321915,1904,1888,1902
2321925,1904,1885,1903
2321935,1904,1886,1902
2321945,1902,1886,1896
2321955,1898,1879,1892
2321965,1895,1873,1888
2321975,1891,1872,1881
2321985,1886,1872,1872
2321995,1879,1864,1868
2322005,1873,1860,1859
2322015,1870,1859,1854
2322025,1863,1856,1846
2322035,1861,1852,1841
2322045,1857,1850,1835
2322055,1855,1849,1838
2322065,1853,1846,1838
2322075,1850,1847,1831
2322085,1851,1850,1837
2322095,1853,1851,1838
2322105,1856,1849,1838
2322115,1852,1851,1840
2322125,1855,1852,1840
2322135,1858,1855,1843
2322145,1859,1853,1845
2322155,1865,1856,1847
2322165,1866,1856,1850
2322175,1865,1856,1853
2322185,1862,1855,1849
2322195,1867,1856,1853
2322205,1866,1857,1850
2322215,1867,1858,1851
2322225,1863,1855,1853
2322235,1867,1855,1850
2322245,1866,1854,1850
2322255,1866,1855,1851
2322265,1866,1853,1850
2322275,1863,1855,1847
2322285,1862,1851,1845
2322295,1865,1854,1846
2322305,1862,1851,1850
2322315,1861,1852,1845
2322325,1863,1851,1844
2322335,1859,1851,1842
2322345,1860,1851,1846
2322355,1858,1851,1843
2322365,1859,1849,1843
2322375,1862,1851,1840
2322385,1856,1853,1846
2322395,1859,1853,1842
2322405,1859,1854,1845
2322415,1856,1853,1843
2322425,1857,1851,1843
2322435,1860,1855,1845
2322445,1861,1852,1842
2322455,1857,1855,1845
2322465,1858,1854,1845
2322475,1862,1856,1846
2322485,1863,1855,1850
2322495,1867,1858,1852
2322505,1871,1860,1857
2322515,1872,1865,1865
2322525,1875,1870,1872
2322535,1883,1873,1878
2322545,1885,1878,1889
2322555,1891,1886,1898
2322565,1893,1886,1905
2322575,1893,1887,1910
2322585,1899,1887,1914
2322595,1897,1883,1917
2322605,1898,1886,1915
2322615,1895,1883,1908
2322625,1892,1877,1906
2322635,1891,1875,1903
2322645,1886,1872,1901
2322655,1882,1871,1887
2322665,1874,1866,1877
2322675,1872,1859,1871
2322685,1871,1856,1865
2322695,1867,1854,1859
2322705,1863,1850,1850
2322715,1859,1851,1845
2322725,1857,1847,1845
2322735,1859,1846,1840
2322745,1856,1847,1841
2322755,1856,1845,1840
2322765,1862,1852,1843
2322775,1858,1849,1842
2322785,1860,1850,1844
2322795,1867,1854,1849
2322805,1861,1856,1854
2322815,1867,1856,1850
2322825,1870,1856,1855
2322835,1870,1858,1855
2322845,1871,1857,1859
2322855,1870,1860,1861
2322865,1872,1859,1859
2322875,1869,1857,1858
2322885,1870,1855,1856
2322895,1868,1857,1857
2322905,1871,1856,1856
2322915,1867,1858,1857
2322925,1865,1853,1853
2322935,1865,1854,1853
2322945,1863,1856,1851
2322955,1862,1855,1846
2322965,1861,1853,1855
2322975,1856,1853,1845
2322985,1863,1851,1847
2322995,1859,1853,1845
2323005,1862,1851,1846
2323015,1862,1850,1842
2323025,1861,1851,1843
2323035,1858,1850,1843
2323045,1860,1853,1848
2323055,1866,1846,1849
2323065,1863,1856,1849
2323075,1861,1852,1848
2323085,1866,1850,1849
2323095,1865,1854,1846
2323105,1867,1851,1852
2323115,1863,1847,1849
2323125,1867,1856,1849
2323135,1866,1852,1849
2323145,1861,1856,1850
2323155,1866,1856,1850
2323165,1868,1856,1850
2323175,1867,1857,1855
2323185,1870,1861,1858
2323195,1872,1861,1861
2323205,1877,1870,1870
2323215,1882,1872,1877
2323225,1887,1877,1885
2323235,1889,1879,1894
2323245,1894,1885,1902
2323255,1899,1885,1905
2323265,1901,1886,1911
2323275,1898,1886,1911
2323285,1899,1883,1909
2323295,1891,1883,1907
2323305,1891,1876,1904
2323315,1890,1873,1902
2323325,1884,1872,1894
2323335,1877,1868,1887
2323345,1874,1863,1876
2323355,1872,1862,1872
2323365,1867,1856,1867
2323375,1866,1855,1859
2323385,1861,1852,1854
2323395,1861,1851,1847
2323405,1857,1850,1845
2323415,1858,1847,1841
2323425,1857,1849,1841
2323435,1854,1853,1842
2323445,1856,1850,1842
2323455,1857,1853,1842
2323465,1858,1850,1846
2323475,1858,1856,1845
2323485,1856,1854,1844
2323495,1860,1856,1853
2323505,1858,1854,1851
2323515,1861,1856,1857
2323525,1861,1853,1859
2323535,1862,1857,1858
2323545,1866,1856,1859
2323555,1862,1854,1860
2323565,1866,1856,1862
2323575,1867,1855,1861
2323585,1862,1856,1858
2323595,1869,1856,1861
2323605,1866,1854,1857
2323615,1861,1855,1857
2323625,1866,1856,1855
2323635,1867,1854,1856
2323645,1867,1853,1853
2323655,1862,1853,1853
2323665,1867,1855,1846
2323675,1866,1853,1851
2323685,1863,1853,1850
2323695,1865,1853,1851
2323705,1866,1855,1850
2323715,1862,1856,1846
2323725,1861,1853,1847
2323735,1863,1856,1849
2323745,1863,1854,1847
2323755,1861,1855,1850
2323765,1866,1855,1851
2323775,1861,1856,1851
2323785,1866,1853,1851
2323795,1866,1855,1851
2323805,1866,1855,1851
2323815,1865,1854,1853
2323825,1869,1854,1852
2323835,1867,1854,1851
2323845,1866,1856,1855
2323855,1866,1856,1851
2323865,1867,1857,1856
2323875,1870,1858,1857
2323885,1873,1862,1866
2323895,1873,1870,1871
2323905,1878,1870,1877
2323915,1883,1872,1886
2323925,1883,1874,1895
2323935,1891,1882,1904
2323945,1891,1884,1907
2323955,1891,1885,1913
2323965,1894,1886,1918
2323975,1893,1888,1918
2323985,1895,1883,1917
2323995,1894,1882,1911
2324005,1886,1875,1905
2324015,1887,1873,1903
2324025,1882,1872,1895
2324035,1879,1871,1889
2324045,1873,1863,1877
2324055,1873,1862,1875
2324065,1871,1858,1865
2324075,1869,1854,1858
2324085,1861,1854,1856
2324095,1861,1854,1850
2324105,1861,1847,1845
2324115,1858,1851,1843
2324125,1858,1851,1841
2324135,1857,1849,1840
2324145,1859,1849,1840
2324155,1861,1851,1841
2324165,1862,1851,1843
2324175,1859,1856,1843
2324185,1862,1856,1849
2324195,1869,1856,1853
2324205,1863,1856,1851
2324215,1865,1856,1856
2324225,1866,1857,1857
2324235,1867,1858,1856
2324245,1869,1856,1858
2324255,1869,1856,1861
2324265,1869,1856,1860
2324275,1867,1857,1860
2324285,1866,1858,1859
2324295,1867,1856,1859
2324305,1867,1855,1861
2324315,1870,1856,1857
2324325,1870,1855,1855
2324335,1866,1856,1856
2324345,1863,1853,1852
2324355,1865,1854,1854
2324365,1863,1853,1853
2324375,1866,1853,1851
2324385,1863,1853,1852
2324395,1863,1851,1845
2324405,1858,1854,1845
2324415,1862,1854,1849
2324425,1862,1850,1845
2324435,1861,1854,1845
2324445,1863,1856,1843
2324455,1862,1853,1842
2324465,1863,1855,1843
2324475,1862,1854,1840
2324485,1866,1853,1841
2324495,1862,1856,1843
2324505,1863,1858,1842
2324515,1861,1855,1846
2324525,1863,1854,1842
2324535,1863,1855,1845
2324545,1866,1858,1847
2324555,1869,1858,1853
2324565,1872,1859,1856
2324575,1877,1869,1867
2324585,1879,1869,1874
2324595,1882,1872,1879
2324605,1888,1875,1890
2324615,1891,1881,1901
2324625,1899,1882,1906
2324635,1899,1886,1913
2324645,1900,1888,1916
2324655,1903,1886,1920
2324665,1903,1878,1919
2324675,1895,1882,1914
2324685,1895,1875,1909
2324695,1893,1872,1904
2324705,1888,1872,1898
2324715,1882,1867,1891
2324725,1881,1868,1883
2324735,1873,1858,1872
2324745,1872,1855,1870
2324755,1867,1855,1861
2324765,1867,1854,1854
2324775,1858,1851,1847
2324785,1856,1847,1841
2324795,1857,1846,1840
2324805,1855,1845,1838
2324815,1855,1847,1833
2324825,1857,1847,1836
2324835,1856,1849,1839
2324845,1855,1851,1839
2324855,1856,1851,1840
2324865,1857,1850,1840
2324875,1859,1847,1842
2324885,1859,1854,1847
2324895,1861,1856,1846
2324905,1862,1856,1853
2324915,1862,1858,1850
2324925,1863,1856,1851
2324935,1863,1856,1856
2324945,1865,1858,1856
2324955,1869,1857,1854
2324965,1868,1856,1857
2324975,1866,1857,1855
2324985,1867,1857,1857
2324995,1869,1856,1858
2325005,1868,1854,1856
2325015,1869,1857,1856
2325025,1867,1856,1852
2325035,1867,1855,1854
2325045,1866,1854,1853
2325055,1861,1851,1854
2325065,1860,1850,1850
2325075,1863,1850,1851
2325085,1862,1855,1849
2325095,1861,1852,1849
2325105,1863,1852,1853
2325115,1861,1850,1847
2325125,1860,1851,1850
2325135,1859,1853,1847
2325145,1860,1853,1847
2325155,1859,1852,1847
2325165,1859,1854,1845
2325175,1861,1854,1846
2325185,1862,1855,1846
2325195,1866,1855,1847
2325205,1865,1854,1846
2325215,1867,1854,1850
2325225,1865,1856,1853
2325235,1869,1858,1853
2325245,1872,1859,1856
2325255,1872,1865,1858
2325265,1877,1868,1870
2325275,1883,1872,1876
2325285,1886,1872,1883
2325295,1886,1878,1890
2325305,1890,1879,1895
2325315,1894,1882,1903
2325325,1891,1879,1904
2325335,1891,1883,1904
2325345,1893,1875,1903
2325355,1891,1875,1905
2325365,1888,1872,1899
2325375,1884,1871,1891
2325385,1879,1866,1886
2325395,1875,1863,1878
2325405,1872,1862,1871
2325415,1872,1858,1867
2325425,1867,1856,1860
2325435,1867,1852,1855
2325445,1862,1851,1847
2325455,1862,1850,1845
2325465,1856,1847,1841
2325475,1858,1847,1840
2325485,1856,1845,1838
2325495,1857,1849,1840
2325505,1858,1850,1840
2325515,1857,1854,1840
2325525,1861,1852,1841
2325535,1861,1855,1840
2325545,1862,1851,1842
2325555,1863,1856,1847
2325565,1866,1857,1851
2325575,1870,1857,1853
2325585,1871,1857,1855
2325595,1869,1859,1857
2325605,1872,1857,1857
2325615,1871,1861,1856
2325625,1871,1856,1861
2325635,1871,1860,1858
2325645,1871,1859,1857
2325655,1872,1858,1858
2325665,1871,1855,1858
2325675,1870,1856,1857
2325685,1869,1856,1856
2325695,1865,1855,1854
2325705,1869,1852,1854
2325715,1868,1854,1851
2325725,1866,1855,1850
2325735,1867,1855,1850
2325745,1866,1855,1847
2325755,1865,1855,1846
2325765,1863,1854,1849
2325775,1866,1851,1847
2325785,1863,1853,1847
2325795,1867,1855,1845
2325805,1863,1853,1846
2325815,1867,1854,1847
2325825,1861,1855,1847
2325835,1869,1856,1851
2325845,1870,1855,1854
2325855,1871,1860,1857
2325865,1874,1863,1863
2325875,1878,1869,1869
2325885,1882,1871,1873
2325895,1882,1874,1877
2325905,1890,1874,1890
2325915,1894,1879,1894
2325925,1895,1878,1897
2325935,1899,1882,1902
2325945,1898,1881,1903
2325955,1893,1879,1901
2325965,1897,1878,1902
2325975,1891,1874,1899
2325985,1889,1872,1895
2325995,1885,1870,1884
2326005,1882,1865,1882
2326015,1878,1866,1872
2326025,1876,1859,1870
2326035,1871,1859,1861
2326045,1868,1857,1855
2326055,1867,1853,1853
2326065,1862,1851,1847
2326075,1865,1847,1850
2326085,1863,1851,1841
2326095,1861,1851,1839
2326105,1861,1853,1837
2326115,1857,1851,1840
2326125,1860,1855,1840
2326135,1864,1847,1840
2326145,1857,1854,1844
2326155,1865,1857,1845
2326165,1866,1854,1847
2326175,1866,1856,1851
2326185,1863,1859,1854
2326195,1869,1857,1853
2326205,1867,1857,1856
2326215,1866,1858,1856
2326225,1866,1859,1855
2326235,1870,1857,1857
2326245,1866,1858,1858
2326255,1866,1857,1858
2326265,1869,1857,1857
2326275,1863,1856,1858
2326285,1869,1855,1857
2326295,1865,1856,1854
2326305,1861,1853,1854
2326315,1869,1856,1857
2326325,1866,1854,1856
2326335,1866,1854,1854
2326345,1863,1853,1854
2326355,1861,1855,1854
2326365,1863,1851,1850
2326375,1863,1856,1854
2326385,1867,1851,1850
2326395,1869,1855,1851
2326405,1867,1857,1853
2326415,1871,1856,1857
2326425,1871,1867,1861
2326435,1874,1869,1872
2326445,1875,1871,1877
2326455,1883,1872,1882
2326465,1885,1873,1893
2326475,1891,1879,1895
2326485,1890,1882,1903
2326495,1893,1882,1904
2326505,1895,1882,1903
2326515,1894,1883,1904
2326525,1895,1883,1903
2326535,1893,1886,1902
2326545,1887,1879,1890
2326555,1888,1873,1887
2326565,1883,1872,1878
2326575,1882,1870,1873
2326585,1876,1867,1872
2326595,1872,1862,1865
2326605,1871,1859,1862
2326615,1866,1854,1854
2326625,1862,1850,1845
2326635,1862,1852,1850
2326645,1859,1851,1842
2326655,1857,1847,1842
2326665,1856,1849,1841
2326675,1855,1847,1840
2326685,1856,1851,1845
2326695,1858,1850,1842
2326705,1858,1854,1843
2326715,1858,1854,1850
2326725,1857,1853,1851
2326735,1857,1856,1853
2326745,1862,1858,1854
2326755,1865,1856,1856
2326765,1864,1856,1855
2326775,1861,1857,1856
2326785,1862,1858,1856
2326795,1862,1856,1855
2326805,1862,1855,1857
2326815,1863,1855,1858
2326825,1866,1855,1854
2326835,1865,1855,1851
2326845,1862,1854,1855
2326855,1863,1853,1851
2326865,1865,1856,1851
2326875,1862,1852,1848
2326885,1860,1855,1848
2326895,1861,1851,1850
2326905,1860,1853,1847
2326915,1861,1854,1847
2326925,1861,1851,1845
2326935,1861,1851,1847
2326945,1861,1853,1846
2326955,1862,1851,1847
2326965,1863,1853,1850
2326975,1863,1853,1852
2326985,1867,1855,1854
2326995,1872,1859,1859
2327005,1873,1862,1866
2327015,1876,1869,1872
2327025,1881,1872,1875
2327035,1889,1877,1886
2327045,1892,1879,1895
2327055,1895,1881,1901
2327065,1896,1886,1904
2327075,1899,1887,1906
2327085,1895,1886,1908
2327095,1893,1885,1907
2327105,1891,1881,1904
2327115,1890,1879,1904
2327125,1887,1875,1897
2327135,1884,1872,1889
2327145,1879,1869,1883
2327155,1875,1865,1875
2327165,1872,1860,1872
2327175,1870,1858,1864
2327185,1865,1855,1859
2327195,1862,1854,1854
2327205,1862,1854,1847
2327215,1861,1846,1849
2327225,1857,1850,1845
2327235,1857,1847,1844
2327245,1859,1847,1843
2327255,1859,1851,1841
2327265,1861,1850,1842
2327275,1857,1852,1845
2327285,1862,1853,1849
2327295,1861,1853,1849
2327305,1862,1855,1847
2327315,1866,1856,1853
2327325,1867,1855,1855
2327335,1863,1856,1856
2327345,1865,1858,1857
2327355,1870,1856,1856
2327365,1869,1856,1857
2327375,1868,1857,1856
2327385,1871,1856,1855
2327395,1867,1855,1855
2327405,1865,1854,1855
2327415,1866,1856,1851
2327425,1866,1854,1850
2327435,1862,1853,1847
2327445,1859,1855,1849
2327455,1861,1858,1849
2327465,1857,1856,1847
2327475,1857,1854,1845
2327485,1860,1853,1845
2327495,1861,1855,1848
2327505,1862,1855,1847
2327515,1859,1854,1846
2327525,1860,1852,1850
2327535,1862,1853,1847
2327545,1863,1850,1849
2327555,1859,1854,1850
2327565,1861,1853,1846
2327575,1862,1855,1850
2327585,1861,1855,1851
2327595,1866,1852,1855
2327605,1868,1854,1854
2327615,1870,1856,1857
2327625,1872,1858,1860
2327635,1872,1863,1870
2327645,1876,1867,1874
2327655,1878,1872,1882
2327665,1885,1873,1890
2327675,1888,1872,1901
2327685,1890,1878,1904
2327695,1893,1878,1911
2327705,1891,1881,1911
2327715,1891,1879,1914
2327725,1892,1883,1919
2327735,1886,1878,1911
2327745,1887,1875,1908
2327755,1883,1874,1904
2327765,1879,1872,1904
2327775,1873,1866,1891
2327785,1872,1863,1886
2327795,1872,1861,1879
2327805,1867,1860,1874
2327815,1865,1855,1871
2327825,1862,1853,1865
2327835,1861,1849,1858
2327845,1857,1843,1854
2327855,1856,1847,1851
2327865,1857,1844,1851
2327875,1858,1847,1847
2327885,1857,1846,1847
2327895,1856,1847,1844
2327905,1858,1847,1845
2327915,1859,1850,1849
2327925,1858,1850,1845
2327935,1857,1851,1850
2327945,1859,1854,1855
2327955,1857,1854,1850
2327965,1858,1855,1849
2327975,1863,1855,1851
2327985,1863,1856,1850
2327995,1859,1856,1851
2328005,1861,1856,1845
2328015,1860,1854,1846
2328025,1859,1853,1846
2328035,1862,1853,1845
2328045,1860,1855,1843
2328055,1861,1854,1845
2328065,1861,1851,1846
2328075,1859,1850,1843
2328085,1863,1852,1842
2328095,1861,1853,1843
2328105,1860,1854,1845
2328115,1859,1852,1846
2328125,1863,1850,1844
2328135,1861,1852,1850
2328145,1862,1852,1846
2328155,1861,1852,1847
2328165,1861,1853,1850
2328175,1863,1850,1849
2328185,1863,1854,1847
2328195,1863,1853,1847
2328205,1863,1856,1851
2328215,1861,1854,1847
2328225,1863,1853,1849
2328235,1861,1851,1843
2328245,1863,1854,1849
2328255,1866,1854,1843
2328265,1866,1853,1843
2328275,1865,1854,1842
2328285,1868,1856,1847
2328295,1867,1861,1853
2328305,1871,1861,1858
2328315,1872,1863,1863
2328325,1875,1870,1872
2328335,1878,1870,1876
2328345,1882,1875,1888
2328355,1881,1879,1898
2328365,1888,1877,1903
2328375,1887,1882,1906
2328385,1886,1881,1906
2328395,1887,1878,1909
2328405,1883,1878,1910
2328415,1883,1878,1907
2328425,1883,1872,1903
2328435,1881,1872,1899
2328445,1877,1871,1891
2328455,1873,1863,1884
2328465,1871,1862,1877
2328475,1871,1858,1871
2328485,1869,1856,1863
2328495,1867,1854,1856
2328505,1862,1850,1849
2328515,1863,1847,1844
2328525,1859,1851,1840
2328535,1857,1846,1837
2328545,1862,1849,1838
2328555,1862,1847,1837
2328565,1861,1850,1840
2328575,1863,1851,1841
2328585,1867,1853,1843
2328595,1867,1853,1845
2328605,1870,1855,1845
2328615,1869,1856,1850
2328625,1870,1858,1855
2328635,1871,1857,1856
2328645,1871,1861,1857
2328655,1869,1858,1859
2328665,1872,1860,1857
2328675,1872,1856,1856
2328685,1871,1855,1856
2328695,1869,1856,1857
2328705,1871,1856,1856
2328715,1870,1855,1855
2328725,1865,1855,1854
2328735,1867,1857,1854
2328745,1870,1855,1850
2328755,1869,1856,1849
2328765,1868,1855,1850
2328775,1871,1856,1850
2328785,1869,1854,1847
2328795,1866,1857,1851
2328805,1867,1854,1850
2328815,1870,1853,1847
2328825,1867,1856,1847
2328835,1867,1855,1847
2328845,1866,1856,1850
2328855,1871,1857,1847
2328865,1866,1855,1849
2328875,1867,1855,1854
2328885,1867,1855,1849
2328895,1866,1855,1852
2328905,1871,1855,1850
2328915,1870,1858,1851
2328925,1869,1855,1855
2328935,1867,1858,1856
2328945,1869,1859,1858
2328955,1872,1862,1865
2328965,1872,1869,1872
2328975,1876,1872,1878
2328985,1878,1873,1883
2328995,1884,1878,1891
2329005,1886,1882,1901
2329015,1887,1883,1904
2329025,1887,1879,1904
2329035,1889,1881,1904
2329045,1887,1879,1905
2329055,1887,1875,1904
2329065,1885,1874,1904
2329075,1883,1872,1897
2329085,1878,1870,1891
2329095,1877,1868,1888
2329105,1872,1863,1878
2329115,1872,1854,1876
2329125,1867,1856,1867
2329135,1865,1854,1861
2329145,1864,1855,1856
2329155,1865,1858,1855
2329165,1862,1852,1851
2329175,1863,1850,1843
2329185,1866,1855,1849
2329195,1862,1853,1852
2329205,1866,1854,1850
2329215,1867,1857,1847
2329225,1867,1862,1851
2329235,1872,1857,1856
2329245,1869,1858,1857
2329255,1866,1858,1862
2329265,1871,1860,1861
2329275,1871,1859,1859
2329285,1869,1859,1861
2329295,1866,1859,1860
2329305,1865,1859,1861
2329315,1863,1859,1856
2329325,1863,1859,1857
2329335,1861,1855,1857
2329345,1863,1855,1855
2329355,1863,1856,1855
2329365,1862,1854,1854
2329375,1862,1854,1851
2329385,1871,1850,1850
2329395,1862,1857,1854
2329405,1863,1856,1851
2329415,1865,1855,1847
2329425,1865,1854,1847
2329435,1863,1854,1846
2329445,1865,1853,1847
2329455,1861,1857,1849
2329465,1866,1854,1849
2329475,1862,1855,1850
2329485,1867,1855,1854
2329495,1863,1856,1850
2329505,1867,1858,1854
2329515,1870,1861,1861
2329525,1872,1862,1867
2329535,1873,1867,1871
2329545,1874,1868,1878
2329555,1878,1872,1887
2329565,1875,1872,1895
2329575,1886,1877,1901
2329585,1888,1879,1904
2329595,1887,1878,1907
2329605,1889,1879,1908
2329615,1889,1881,1906
2329625,1888,1879,1912
2329635,1886,1875,1904
2329645,1885,1873,1904
2329655,1887,1872,1894
2329665,1871,1866,1890
2329675,1877,1862,1883
2329685,1876,1861,1873
2329695,1871,1857,1869
2329705,1870,1856,1857
2329715,1870,1854,1855
2329725,1865,1855,1847
2329735,1861,1850,1841
2329745,1860,1850,1840
2329755,1861,1848,1839
2329765,1861,1850,1835
2329775,1859,1851,1834
2329785,1865,1855,1838
2329795,1860,1853,1837
2329805,1863,1855,1838
2329815,1861,1855,1842
2329825,1863,1856,1843
2329835,1863,1857,1849
2329845,1869,1857,1854
2329855,1863,1858,1855
2329865,1869,1859,1856
2329875,1867,1857,1857
2329885,1867,1857,1856
2329895,1870,1857,1855
2329905,1868,1859,1856
2329915,1869,1855,1856
2329925,1867,1856,1853
2329935,1866,1856,1850
2329945,1867,1857,1849
2329955,1868,1854,1850
2329965,1866,1855,1849
2329975,1867,1854,1845
2329985,1866,1854,1844
2329995,1863,1854,1841
2330005,1866,1853,1840
2330015,1861,1854,1840
2330025,1862,1854,1841
2330035,1865,1853,1843
2330045,1863,1853,1842
2330055,1863,1852,1842
2330065,1866,1857,1849
2330075,1869,1858,1853
2330085,1872,1863,1857
2330095,1874,1870,1863
2330105,1875,1872,1873
2330115,1882,1874,1885
2330125,1883,1876,1892
2330135,1888,1882,1904
2330145,1892,1885,1909
2330155,1895,1882,1911
2330165,1893,1887,1917
2330175,1893,1886,1920
2330185,1893,1883,1915
2330195,1886,1879,1911
2330205,1887,1877,1906
2330215,1883,1872,1902
2330225,1881,1871,1892
2330235,1879,1867,1883
2330245,1874,1865,1874
2330255,1872,1863,1871
2330265,1871,1862,1861
2330275,1867,1854,1853
2330285,1862,1856,1849
2330295,1859,1851,1841
2330305,1856,1851,1841
2330315,1857,1847,1840
2330325,1860,1850,1839
2330335,1858,1850,1839
2330345,1859,1850,1837
2330355,1859,1851,1837
2330365,1859,1852,1840
2330375,1865,1855,1845
2330385,1867,1853,1847
2330395,1868,1856,1854
2330405,1866,1856,1852
2330415,1866,1859,1855
2330425,1869,1856,1856
2330435,1871,1856,1858
2330445,1871,1859,1859
2330455,1869,1857,1859
2330465,1870,1857,1859
2330475,1871,1858,1856
2330485,1871,1858,1858
2330495,1870,1856,1854
2330505,1870,1859,1854
2330515,1869,1857,1851
2330525,1871,1855,1846
2330535,1870,1856,1849
2330545,1869,1855,1847
2330555,1871,1855,1845
2330565,1868,1854,1845
2330575,1867,1851,1850
2330585,1867,1853,1845
2330595,1866,1855,1845
2330605,1866,1853,1846
2330615,1863,1853,1847
2330625,1866,1850,1846
2330635,1865,1854,1849
2330645,1867,1853,1849
2330655,1860,1851,1850
2330665,1865,1855,1851
2330675,1869,1858,1853
2330685,1869,1861,1860
2330695,1872,1863,1867
2330705,1875,1870,1872
2330715,1885,1872,1879
2330725,1883,1874,1891
2330735,1885,1878,1894
2330745,1890,1878,1905
2330755,1893,1883,1910
2330765,1893,1885,1915
2330775,1894,1885,1911
2330785,1889,1882,1913
2330795,1887,1883,1910
2330805,1886,1877,1904
2330815,1885,1877,1903
2330825,1879,1873,1891
2330835,1878,1871,1887
2330845,1875,1867,1875
2330855,1872,1861,1871
2330865,1871,1856,1861
2330875,1870,1853,1858
2330885,1870,1851,1850
2330895,1865,1850,1845
2330905,1859,1846,1840
2330915,1861,1848,1839
2330925,1858,1849,1839
2330935,1861,1845,1835
2330945,1860,1849,1837
2330955,1865,1851,1839
2330965,1863,1850,1840
2330975,1866,1855,1840
2330985,1865,1852,1846
2330995,1870,1857,1847
2331005,1866,1854,1849
2331015,1869,1858,1855
2331025,1869,1855,1856
2331035,1866,1855,1856
2331045,1865,1859,1856
2331055,1867,1870,1855
2331065,1866,1856,1859
2331075,1869,1856,1858
2331085,1867,1856,1855
2331095,1865,1854,1850
2331105,1862,1853,1850
2331115,1867,1851,1852
2331125,1861,1853,1849
2331135,1861,1853,1844
2331145,1858,1852,1847
2331155,1860,1851,1841
2331165,1860,1847,1840
2331175,1859,1850,1841
2331185,1856,1845,1841
2331195,1860,1847,1840
2331205,1858,1845,1840
2331215,1858,1847,1840
2331225,1856,1847,1841
2331235,1857,1847,1840
2331245,1858,1851,1840
2331255,1861,1847,1842
2331265,1863,1849,1843
2331275,1860,1853,1844
2331285,1862,1855,1841
2331295,1863,1853,1840
2331305,1868,1854,1843
2331315,1866,1855,1847
2331325,1867,1856,1854
2331335,1872,1859,1855
2331345,1872,1862,1862
2331355,1873,1868,1869
2331365,1879,1871,1879
2331375,1882,1873,1883
2331385,1886,1873,1896
2331395,1889,1873,1899
2331405,1888,1882,1903
2331415,1888,1877,1904
2331425,1886,1875,1902
2331435,1887,1875,1895
2331445,1881,1874,1893
2331455,1879,1872,1887
2331465,1874,1868,1882
2331475,1874,1868,1872
2331485,1871,1859,1866
2331495,1873,1861,1861
2331505,1870,1856,1853
2331515,1865,1854,1850
2331525,1865,1849,1842
2331535,1869,1848,1839
2331545,1866,1847,1838
2331555,1862,1849,1837
2331565,1862,1845,1836
2331575,1863,1847,1836
2331585,1863,1847,1835
2331595,1862,1847,1834
2331605,1863,1852,1835
2331615,1867,1849,1839
2331625,1867,1850,1839
2331635,1870,1853,1840
2331645,1869,1855,1843
2331655,1869,1854,1845
2331665,1870,1855,1850
2331675,1867,1856,1850
2331685,1870,1855,1853
2331695,1867,1855,1854
2331705,1867,1856,1856
2331715,1869,1856,1855
2331725,1865,1857,1854
2331735,1865,1857,1856
2331745,1862,1855,1856
2331755,1865,1855,1853
2331765,1865,1851,1855
2331775,1865,1854,1854
2331785,1862,1854,1850
2331795,1863,1855,1851
2331805,1862,1853,1851
2331815,1862,1853,1850
2331825,1864,1857,1852
2331835,1867,1853,1851
2331845,1865,1853,1850
2331855,1869,1854,1852
2331865,1867,1856,1853
2331875,1867,1852,1851
2331885,1862,1853,1852
2331895,1865,1855,1853
2331905,1867,1852,1851
2331915,1866,1854,1853
2331925,1871,1853,1850
2331935,1867,1854,1852
2331945,1870,1852,1855
2331955,1865,1852,1853
2331965,1866,1854,1851
2331975,1866,1855,1851
2331985,1867,1855,1849
2331995,1863,1856,1848
2332005,1869,1853,1849
2332015,1867,1854,1853
2332025,1870,1855,1855
2332035,1869,1859,1856
2332045,1871,1856,1858
2332055,1873,1861,1859
2332065,1875,1867,1868
2332075,1879,1867,1872
2332085,1879,1871,1879
2332095,1883,1873,1887
2332105,1887,1874,1890
2332115,1888,1878,1901
2332125,1887,1877,1904
2332135,1887,1877,1905
2332145,1889,1875,1906
2332155,1886,1875,1906
2332165,1886,1875,1905
2332175,1878,1872,1904
2332185,1877,1872,1895
2332195,1876,1866,1892
2332205,1872,1862,1886
2332215,1871,1862,1874
2332225,1871,1856,1872
2332235,1861,1854,1859
2332245,1863,1851,1862
2332255,1862,1845,1853
2332265,1857,1846,1846
2332275,1857,1845,1841
2332285,1858,1841,1840
2332295,1856,1847,1839
2332305,1858,1854,1840
2332315,1859,1849,1839
2332325,1859,1847,1840
2332335,1859,1851,1840
2332345,1862,1855,1843
2332355,1862,1855,1842
2332365,1863,1855,1846
2332375,1865,1855,1847
2332385,1865,1856,1845
2332395,1868,1857,1847
2332405,1866,1858,1851
2332415,1867,1858,1853
2332425,1868,1859,1854
2332435,1866,1858,1854
2332445,1866,1857,1854
2332455,1866,1861,1855
2332465,1867,1856,1851
2332475,1868,1854,1855
2332485,1867,1856,1855
2332495,1866,1851,1853
2332505,1865,1854,1852
2332515,1865,1851,1853
2332525,1865,1854,1850
2332535,1866,1856,1853
2332545,1869,1856,1846
2332555,1863,1853,1850
2332565,1862,1855,1846
2332575,1866,1857,1849
2332585,1866,1853,1849
2332595,1866,1856,1845
2332605,1867,1856,1845
2332615,1868,1855,1846
2332625,1865,1856,1847
2332635,1866,1855,1845
2332645,1865,1857,1851
2332655,1865,1857,1850
2332665,1863,1856,1850
2332675,1866,1857,1847
2332685,1865,1856,1851
2332695,1864,1856,1843
2332705,1862,1856,1849
2332715,1870,1855,1850
2332725,1867,1855,1853
2332735,1872,1855,1853
2332745,1868,1857,1856
2332755,1871,1861,1856
2332765,1872,1863,1862
2332775,1872,1865,1867
2332785,1879,1869,1872
2332795,1875,1871,1877
2332805,1881,1872,1883
2332815,1878,1873,1887
2332825,1886,1878,1894
2332835,1879,1877,1897
2332845,1882,1877,1899
2332855,1884,1878,1902
2332865,1883,1874,1899
2332875,1877,1872,1898
2332885,1874,1872,1894
2332895,1873,1870,1895
2332905,1872,1872,1887
2332915,1872,1865,1883
2332925,1871,1859,1875
2332935,1867,1858,1872
2332945,1866,1855,1869
2332955,1866,1850,1862
2332965,1859,1853,1854
2332975,1863,1850,1855
2332985,1859,1849,1850
2332995,1861,1853,1847
2333005,1861,1850,1845
2333015,1865,1855,1843
2333025,1866,1850,1847
2333035,1865,1855,1846
2333045,1870,1856,1849
2333055,1867,1856,1855
2333065,1868,1859,1854
2333075,1870,1857,1858
2333085,1869,1856,1859
2333095,1870,1857,1862
2333105,1871,1856,1857
2333115,1871,1859,1862
2333125,1871,1858,1863
2333135,1872,1857,1863
2333145,1871,1861,1859
2333155,1871,1857,1863
2333165,1868,1856,1861
2333175,1867,1854,1862
2333185,1872,1854,1858
2333195,1867,1857,1856
2333205,1868,1854,1856
2333215,1865,1856,1857
2333225,1865,1854,1855
2333235,1869,1854,1854
2333245,1867,1854,1851
2333255,1863,1856,1853
2333265,1866,1856,1854
2333275,1864,1856,1850
2333285,1867,1854,1851
2333295,1868,1856,1850
2333305,1868,1855,1853
2333315,1868,1856,1851
2333325,1872,1857,1850
2333335,1869,1856,1854
2333345,1869,1855,1851
2333355,1869,1856,1853
2333365,1870,1859,1854
2333375,1871,1859,1855
2333385,1873,1860,1861
2333395,1872,1866,1867
2333405,1874,1869,1872
2333415,1878,1872,1878
2333425,1879,1875,1882
2333435,1886,1873,1889
2333445,1887,1879,1891
2333455,1887,1877,1899
2333465,1887,1879,1904
2333475,1886,1879,1904
2333485,1888,1878,1904
2333495,1882,1877,1903
2333505,1882,1873,1902
2333515,1877,1874,1901
2333525,1875,1871,1893
2333535,1872,1869,1886
2333545,1872,1865,1882
2333555,1871,1865,1872
2333565,1870,1859,1869
2333575,1867,1856,1861
2333585,1865,1853,1856
2333595,1866,1853,1856
2333605,1861,1847,1851
2333615,1862,1853,1849
2333625,1862,1850,1840
2333635,1862,1851,1843
2333645,1862,1852,1845
2333655,1862,1851,1843
2333665,1867,1854,1843
2333675,1862,1854,1846
2333685,1865,1852,1849
2333695,1866,1861,1851
2333705,1868,1857,1851
2333715,1869,1858,1855
2333725,1871,1857,1853
2333735,1870,1858,1857
2333745,1871,1858,1856
2333755,1868,1858,1858
2333765,1871,1859,1856
2333775,1870,1858,1856
2333785,1868,1858,1857
2333795,1870,1856,1856
2333805,1870,1856,1855
2333815,1867,1856,1857
2333825,1868,1855,1856
2333835,1865,1856,1853
2333845,1869,1856,1855
2333855,1865,1854,1852
2333865,1865,1855,1854
2333875,1865,1855,1851
2333885,1865,1852,1851
2333895,1863,1851,1851
2333905,1863,1856,1849
2333915,1865,1853,1847
2333925,1862,1855,1847
2333935,1869,1853,1852
2333945,1863,1856,1851
2333955,1866,1856,1855
2333965,1872,1857,1857
2333975,1872,1865,1862
2333985,1877,1866,1869
2333995,1878,1872,1872
2334005,1881,1875,1877
2334015,1879,1875,1889
2334025,1887,1878,1895
2334035,1888,1882,1901
2334045,1888,1882,1904
2334055,1886,1879,1905
2334065,1887,1882,1905
2334075,1888,1883,1904
2334085,1887,1879,1902
2334095,1885,1874,1901
2334105,1885,1873,1899
2334115,1879,1872,1892
2334125,1877,1869,1887
2334135,1874,1870,1881
2334145,1872,1863,1873
2334155,1869,1860,1869
2334165,1870,1859,1862
2334175,1868,1857,1857
2334185,1866,1854,1853
2334195,1865,1855,1851
2334205,1862,1856,1847
2334215,1862,1851,1843
2334225,1863,1847,1843
2334235,1862,1850,1841
2334245,1862,1856,1841
2334255,1862,1854,1841
2334265,1862,1851,1846
2334275,1866,1854,1849
2334285,1867,1857,1847
2334295,1870,1856,1851
2334305,1867,1855,1856
2334315,1871,1856,1856
2334325,1869,1857,1857
2334335,1869,1856,1856
2334345,1870,1857,1857
2334355,1871,1858,1859
2334365,1871,1858,1858
2334375,1867,1857,1856
2334385,1867,1858,1856
2334395,1866,1854,1856
2334405,1866,1854,1853
2334415,1863,1854,1853
2334425,1863,1851,1851
2334435,1866,1853,1851
2334445,1861,1853,1849
2334455,1867,1854,1852
2334465,1866,1854,1849
2334475,1867,1854,1851
2334485,1865,1854,1852
2334495,1866,1853,1851
2334505,1867,1852,1850
2334515,1863,1853,1851
2334525,1865,1853,1853
2334535,1866,1852,1852
2334545,1866,1852,1853
2334555,1868,1853,1853
2334565,1866,1852,1857
2334575,1872,1855,1858
2334585,1872,1857,1868
2334595,1874,1861,1873
2334605,1878,1861,1879
2334615,1879,1871,1889
2334625,1882,1872,1900
2334635,1883,1872,1904
2334645,1884,1875,1906
2334655,1888,1877,1911
2334665,1885,1877,1917
2334675,1887,1877,1915
2334685,1887,1876,1911
2334695,1881,1873,1909
2334705,1877,1872,1903
2334715,1873,1870,1902
2334725,1874,1867,1894
2334735,1872,1865,1885
2334745,1872,1858,1875
2334755,1870,1858,1872
2334765,1866,1856,1868
2334775,1867,1853,1861
2334785,1862,1851,1857
2334795,1861,1850,1855
2334805,1861,1852,1851
2334815,1859,1849,1853
2334825,1863,1847,1847
2334835,1861,1847,1847
2334845,1866,1850,1851
2334855,1866,1847,1852
2334865,1863,1853,1852
2334875,1869,1853,1856
2334885,1869,1854,1856
2334895,1869,1853,1858
2334905,1868,1851,1858
2334915,1863,1854,1859
2334925,1867,1856,1862
2334935,1868,1859,1859
2334945,1866,1857,1860
2334955,1863,1857,1858
2334965,1867,1856,1856
2334975,1867,1857,1856
2334985,1869,1856,1856
2334995,1869,1857,1854
2335005,1866,1855,1857
2335015,1870,1854,1851
2335025,1868,1855,1851
2335035,1866,1854,1851
2335045,1863,1855,1847
2335055,1866,1849,1847
2335065,1867,1851,1844
2335075,1861,1851,1845
2335085,1863,1850,1844
2335095,1862,1853,1840
2335105,1862,1853,1840
2335115,1863,1851,1839
2335125,1864,1854,1839
2335135,1861,1850,1840
2335145,1862,1853,1840
2335155,1867,1852,1840
2335165,1869,1857,1842
2335175,1872,1859,1852
2335185,1873,1865,1857
2335195,1874,1867,1872
2335205,1879,1870,1875
2335215,1887,1873,1888
2335225,1883,1875,1897
2335235,1889,1878,1904
2335245,1888,1883,1908
2335255,1889,1883,1915
2335265,1888,1882,1922
2335275,1888,1877,1919
2335285,1887,1874,1926
2335295,1886,1872,1911
2335305,1881,1872,1914
2335315,1875,1868,1903
2335325,1872,1868,1895
2335335,1872,1864,1887
2335345,1871,1857,1884
2335355,1866,1856,1871
2335365,1866,1849,1862
2335375,1863,1853,1859
2335385,1861,1851,1851
2335395,1859,1847,1842
2335405,1862,1851,1840
2335415,1863,1849,1839
2335425,1865,1850,1837
2335435,1865,1851,1840
2335445,1869,1853,1840
2335455,1870,1854,1846
2335465,1867,1857,1847
2335475,1869,1857,1846
2335485,1870,1856,1855
2335495,1869,1857,1856
2335505,1871,1857,1856
2335515,1871,1859,1863
2335525,1872,1858,1861
2335535,1872,1857,1863
2335545,1871,1858,1861
2335555,1872,1858,1865
2335565,1871,1857,1862
2335575,1869,1857,1862
2335585,1870,1859,1859
2335595,1871,1856,1858
2335605,1872,1858,1856
2335615,1866,1854,1856
2335625,1867,1853,1853
2335635,1869,1857,1851
2335645,1867,1853,1851
2335655,1866,1856,1846
2335665,1869,1854,1846
2335675,1869,1856,1845
2335685,1867,1855,1847
2335695,1866,1855,1845
2335705,1866,1854,1843
2335715,1866,1853,1846
2335725,1863,1851,1842
2335735,1867,1856,1847
2335745,1869,1855,1845
2335755,1867,1856,1848
2335765,1869,1859,1850
2335775,1872,1859,1856
2335785,1872,1865,1861
2335795,1878,1867,1870
2335805,1879,1883,1874
2335815,1883,1875,1885
2335825,1886,1881,1894
2335835,1890,1885,1903
2335845,1892,1886,1909
2335855,1895,1888,1911
2335865,1894,1889,1917
2335875,1894,1888,1915
2335885,1891,1883,1915
2335895,1890,1884,1911
2335905,1890,1878,1907
2335915,1887,1877,1903
2335925,1883,1872,1895
2335935,1877,1867,1888
2335945,1874,1863,1877
2335955,1872,1858,1872
2335965,1869,1857,1867
2335975,1866,1851,1858
2335985,1863,1850,1847
2335995,1861,1847,1845
2336005,1856,1847,1843
2336015,1860,1845,1840
2336025,1857,1843,1838
2336035,1857,1845,1840
2336045,1860,1847,1838
2336055,1859,1847,1839
2336065,1857,1847,1839
2336075,1860,1851,1840
2336085,1859,1853,1840
2336095,1861,1850,1842
2336105,1863,1854,1843
2336115,1860,1856,1851
2336125,1867,1857,1850
2336135,1866,1855,1856
2336145,1870,1856,1856
2336155,1866,1858,1856
2336165,1869,1856,1857
2336175,1872,1856,1857
2336185,1868,1856,1856
2336195,1871,1855,1854
2336205,1869,1857,1853
2336215,1871,1853,1855
2336225,1868,1856,1853
2336235,1867,1854,1850
2336245,1869,1853,1851
2336255,1869,1851,1851
2336265,1867,1850,1852
2336275,1866,1851,1851
2336285,1868,1852,1849
2336295,1867,1851,1850
2336305,1865,1851,1845
2336315,1861,1853,1843
2336325,1866,1851,1841
2336335,1865,1854,1842
2336345,1867,1856,1842
2336355,1867,1856,1844
2336365,1870,1855,1850
2336375,1872,1861,1855
2336385,1874,1861,1860
2336395,1875,1868,1871
2336405,1879,1872,1873
2336415,1884,1875,1879
2336425,1887,1874,1887
2336435,1888,1875,1891
2336445,1886,1879,1894
2336455,1885,1877,1899
2336465,1888,1876,1898
2336475,1887,1875,1898
2336485,1883,1874,1890
2336495,1881,1871,1889
2336505,1877,1865,1886
2336515,1873,1865,1873
2336525,1874,1865,1872
2336535,1872,1856,1868
2336545,1870,1856,1861
2336555,1870,1854,1856
2336565,1868,1854,1853
2336575,1866,1852,1851
2336585,1866,1851,1847
2336595,1868,1854,1843
2336605,1865,1849,1845
2336615,1866,1854,1845
2336625,1866,1854,1845
2336635,1863,1855,1846
2336645,1869,1854,1851
2336655,1866,1855,1850
2336665,1871,1856,1854
2336675,1870,1857,1856
2336685,1870,1858,1856
2336695,1871,1860,1857
2336705,1872,1858,1860
2336715,1872,1862,1859
2336725,1871,1861,1859
2336735,1869,1862,1856
2336745,1872,1861,1857
2336755,1870,1860,1855
2336765,1871,1857,1851
2336775,1871,1858,1854
2336785,1867,1858,1849
2336795,1868,1859,1846
2336805,1865,1859,1849
2336815,1865,1857,1847
2336825,1866,1856,1845
2336835,1867,1856,1843
2336845,1863,1857,1844
2336855,1866,1857,1844
2336865,1869,1855,1845
2336875,1869,1856,1847
2336885,1870,1857,1847
2336895,1870,1856,1847
2336905,1869,1858,1852
2336915,1872,1857,1851
2336925,1872,1861,1855
2336935,1875,1861,1858
2336945,1873,1862,1866
2336955,1877,1871,1868
2336965,1879,1872,1873
2336975,1885,1874,1884
2336985,1887,1879,1889
2336995,1889,1879,1898
2337005,1890,1886,1904
2337015,1895,1886,1906
2337025,1894,1888,1913
2337035,1892,1885,1915
2337045,1899,1886,1910
2337055,1890,1885,1910
2337065,1891,1877,1906
2337075,1888,1876,1899
2337085,1883,1872,1893
2337095,1883,1870,1883
2337105,1879,1867,1879
2337115,1872,1861,1872
2337125,1872,1859,1870
2337135,1872,1854,1857
2337145,1867,1855,1854
2337155,1866,1851,1850
2337165,1863,1851,1842
2337175,1863,1847,1842
2337185,1860,1849,1840
2337195,1861,1850,1840
2337205,1862,1850,1840
2337215,1863,1855,1842
2337225,1867,1854,1845
2337235,1867,1856,1845
2337245,1867,1856,1847
2337255,1869,1857,1851
2337265,1868,1860,1855
2337275,1872,1857,1856
2337285,1870,1861,1855
2337295,1873,1857,1856
2337305,1872,1860,1855
2337315,1872,1858,1857
2337325,1871,1859,1856
2337335,1872,1857,1855
2337345,1872,1858,1856
2337355,1871,1856,1856
2337365,1870,1857,1854
2337375,1869,1855,1855
2337385,1871,1856,1856
2337395,1868,1858,1853
2337405,1869,1857,1854
2337415,1865,1857,1855
2337425,1872,1858,1854
2337435,1869,1857,1856
2337445,1870,1856,1853
2337455,1870,1858,1856
2337465,1870,1855,1853
2337475,1867,1856,1854
2337485,1870,1857,1855
2337495,1869,1856,1858
2337505,1870,1855,1859
2337515,1872,1856,1859
2337525,1872,1857,1862
2337535,1872,1859,1871
2337545,1875,1865,1876
2337555,1883,1867,1882
2337565,1886,1873,1891
2337575,1889,1873,1902
2337585,1891,1877,1908
2337595,1894,1882,1917
2337605,1900,1883,1922
2337615,1899,1883,1925
2337625,1895,1885,1927
2337635,1894,1883,1924
2337645,1891,1879,1919
2337655,1891,1872,1915
2337665,1886,1872,1903
2337675,1883,1871,1895
2337685,1875,1866,1886
2337695,1873,1859,1875
2337705,1870,1854,1870
2337715,1866,1852,1856
2337725,1866,1849,1851
2337735,1862,1847,1845
2337745,1858,1843,1840
2337755,1857,1842,1838
2337765,1856,1843,1837
2337775,1855,1840,1834
2337785,1856,1842,1835
2337795,1858,1846,1838
2337805,1859,1846,1840
2337815,1856,1846,1840
2337825,1859,1848,1850
2337835,1862,1849,1852
2337845,1865,1856,1853
2337855,1865,1855,1859
2337865,1867,1856,1858
2337875,1872,1857,1861
2337885,1867,1857,1867
2337895,1870,1856,1863
2337905,1871,1856,1862
2337915,1869,1856,1862
2337925,1866,1858,1862
2337935,1866,1857,1858
2337945,1866,1856,1856
2337955,1862,1856,1854
2337965,1863,1855,1851
2337975,1866,1855,1853
2337985,1864,1853,1850
2337995,1865,1854,1843
2338005,1863,1855,1849
2338015,1863,1849,1846
2338025,1861,1850,1841
2338035,1864,1852,1842
2338045,1863,1847,1842
2338055,1862,1850,1840
2338065,1863,1851,1842
2338075,1859,1851,1840
2338085,1863,1854,1845
2338095,1869,1855,1846
2338105,1871,1857,1849
2338115,1872,1861,1855
2338125,1875,1867,1863
2338135,1878,1871,1870
2338145,1886,1873,1877
2338155,1886,1877,1888
2338165,1889,1882,1894
2338175,1893,1886,1899
2338185,1895,1886,1904
2338195,1895,1888,1904
2338205,1891,1882,1904
2338215,1891,1881,1905
2338225,1888,1882,1901
2338235,1886,1875,1891
2338245,1883,1873,1885
2338255,1877,1867,1878
2338265,1872,1865,1871
2338275,1871,1861,1863
2338285,1867,1856,1856
2338295,1859,1853,1851
2338305,1859,1854,1843
2338315,1859,1849,1841
2338325,1856,1853,1840
2338335,1859,1849,1840
2338345,1861,1848,1840
2338355,1858,1847,1837
2338365,1860,1850,1839
2338375,1861,1847,1840
2338385,1860,1854,1841
2338395,1863,1853,1846
2338405,1863,1854,1845
2338415,1865,1857,1851
2338425,1867,1855,1851
2338435,1869,1857,1856
2338445,1869,1857,1855
2338455,1870,1857,1856
2338465,1869,1857,1856
2338475,1871,1857,1857
2338485,1872,1866,1855
2338495,1867,1858,1854
2338505,1865,1855,1855
2338515,1867,1861,1842
2338525,1868,1855,1847
2338535,1867,1854,1847
2338545,1866,1854,1845
2338555,1863,1855,1847
2338565,1863,1851,1845
2338575,1860,1854,1844
2338585,1859,1852,1842
2338595,1860,1851,1843
2338605,1865,1852,1843
2338615,1863,1851,1843
2338625,1861,1852,1842
2338635,1862,1852,1840
2338645,1859,1853,1842
2338655,1862,1850,1843
2338665,1865,1852,1843
2338675,1867,1853,1846
2338685,1868,1856,1851
2338695,1871,1860,1856
2338705,1874,1867,1865
2338715,1878,1871,1872
2338725,1883,1871,1875
2338735,1890,1878,1889
2338745,1893,1886,1897
2338755,1898,1888,1904
2338765,1898,1889,1909
2338775,1904,1889,1915
2338785,1903,1889,1917
2338795,1901,1887,1911
2338805,1895,1883,1910
2338815,1898,1881,1905
2338825,1888,1874,1899
2338835,1885,1872,1893
2338845,1881,1871,1886
