timestamp_ms_device,ppg_finger1,ppg_finger2,ppg_finger3
Data format: Timestamp(ms),PPG_Finger1,PPG_Finger2,PPG_Finger3
1967,1867,1855,1865
1977,1867,1858,1866
1987,1867,1858,1863
1997,1872,1862,1865
2007,1871,1857,1867
2017,1872,1857,1867
2027,1872,1857,1867
2037,1872,1858,1863
2047,1870,1861,1871
2057,1871,1859,1868
2067,1871,1857,1871
2077,1871,1859,1870
2087,1871,1859,1869
2097,1872,1858,1871
2107,1871,1859,1869
2117,1870,1856,1867
2127,1872,1857,1867
2137,1869,1858,1868
2147,1863,1856,1863
2157,1866,1859,1866
2167,1869,1858,1863
2177,1869,1856,1867
2187,1863,1856,1861
2197,1870,1856,1864
2207,1869,1857,1863
2217,1869,1858,1861
2227,1869,1856,1862
2237,1869,1859,1863
2247,1866,1856,1862
2257,1865,1855,1860
2267,1865,1855,1861
2277,1866,1855,1866
2287,1868,1855,1862
2297,1869,1855,1863
2307,1865,1855,1861
2317,1869,1857,1862
2327,1866,1858,1862
2337,1867,1856,1861
2347,1869,1857,1861
2357,1867,1856,1860
2367,1869,1856,1862
2377,1867,1856,1859
2387,1869,1855,1858
2397,1867,1856,1861
2407,1870,1858,1862
2417,1872,1856,1863
2427,1872,1861,1862
2437,1872,1863,1869
2447,1873,1861,1871
2457,1878,1866,1872
2467,1878,1863,1873
2477,1885,1867,1878
2487,1885,1867,1883
2497,1886,1871,1886
2507,1885,1870,1887
2517,1882,1866,1891
2527,1884,1871,1890
2537,1878,1870,1887
2547,1883,1866,1887
2557,1879,1865,1886
2567,1875,1866,1883
2577,1872,1866,1882
2587,1872,1865,1878
2597,1872,1861,1875
2607,1871,1859,1876
2617,1871,1860,1872
2627,1867,1858,1872
2637,1863,1859,1872
2647,1862,1858,1870
2657,1863,1857,1867
2667,1865,1858,1866
2677,1866,1857,1865
2687,1866,1855,1865
2697,1867,1856,1868
2707,1867,1856,1867
2717,1867,1860,1869
2727,1871,1857,1870
2737,1869,1858,1872
2747,1869,1858,1872
2757,1872,1858,1871
2767,1872,1861,1872
2777,1872,1862,1871
2787,1871,1860,1871
2797,1872,1862,1872
2807,1871,1859,1871
2817,1871,1857,1869
2827,1872,1863,1872
2837,1867,1857,1867
2847,1871,1858,1870
2857,1871,1857,1871
2867,1868,1858,1868
2877,1869,1858,1863
2887,1866,1855,1865
2897,1866,1857,1866
2907,1867,1856,1866
2917,1866,1856,1863
2927,1863,1856,1864
2937,1866,1856,1867
2947,1865,1857,1862
2957,1867,1859,1867
2967,1866,1857,1867
2977,1869,1857,1862
2987,1869,1857,1863
2997,1869,1857,1862
3007,1869,1857,1861
3017,1869,1855,1866
3027,1871,1857,1861
3037,1869,1857,1865
3047,1866,1856,1861
3057,1869,1858,1862
3067,1867,1857,1857
3077,1867,1857,1861
3087,1869,1857,1862
3097,1869,1858,1863
3107,1867,1856,1857
3117,1867,1858,1860
3127,1866,1858,1860
3137,1869,1857,1867
3147,1872,1856,1863
3157,1872,1858,1867
3167,1874,1859,1869
3177,1877,1864,1872
3187,1880,1862,1875
3197,1883,1869,1881
3207,1886,1869,1882
3217,1887,1870,1887
3227,1886,1872,1887
3237,1885,1871,1891
3247,1884,1871,1889
3257,1882,1871,1887
3267,1883,1869,1888
3277,1878,1870,1887
3287,1877,1868,1883
3297,1872,1863,1881
3307,1872,1863,1875
3317,1872,1866,1873
3327,1871,1859,1872
3337,1871,1861,1871
3347,1869,1856,1867
3357,1866,1857,1871
3367,1865,1856,1866
3377,1863,1856,1863
3387,1866,1856,1865
3397,1870,1856,1861
3407,1867,1856,1865
3417,1867,1857,1867
3427,1867,1857,1863
3437,1871,1854,1863
3447,1869,1856,1863
3457,1872,1859,1866
3467,1871,1858,1867
3477,1872,1857,1868
3487,1871,1859,1870
3497,1871,1857,1869
3507,1869,1859,1867
3517,1872,1862,1867
3527,1867,1859,1867
3537,1870,1857,1866
3547,1869,1862,1864
3557,1868,1859,1867
3567,1870,1860,1866
3577,1870,1857,1863
3587,1870,1858,1865
3597,1866,1858,1861
3607,1867,1856,1861
3617,1867,1859,1858
3627,1866,1857,1861
3637,1866,1858,1863
3647,1867,1855,1859
3657,1865,1857,1859
3667,1867,1859,1861
3677,1869,1856,1857
3687,1866,1857,1859
3697,1865,1855,1857
3707,1867,1856,1859
3717,1867,1856,1859
3727,1869,1856,1861
3737,1867,1858,1859
3747,1865,1857,1859
3757,1867,1856,1862
3767,1869,1858,1861
3777,1867,1857,1862
3787,1872,1858,1862
3797,1867,1858,1859
3807,1867,1858,1861
3817,1869,1858,1861
3827,1867,1855,1861
3837,1867,1856,1864
3847,1869,1855,1865
3857,1867,1856,1862
3867,1869,1858,1862
3877,1873,1859,1869
3887,1874,1859,1870
3897,1875,1861,1869
3907,1878,1861,1872
3917,1878,1864,1876
3927,1879,1867,1883
3937,1884,1867,1884
3947,1886,1869,1888
3957,1887,1871,1888
3967,1883,1872,1889
3977,1883,1871,1890
3987,1882,1869,1887
3997,1879,1869,1885
4007,1875,1867,1883
4017,1876,1868,1883
4027,1873,1870,1883
4037,1872,1862,1877
4047,1863,1861,1873
4057,1867,1858,1872
4067,1863,1860,1869
4077,1865,1855,1867
4087,1865,1856,1867
4097,1862,1857,1859
4107,1862,1855,1858
4117,1863,1856,1859
4127,1866,1856,1856
4137,1866,1855,1860
4147,1863,1855,1859
4157,1866,1855,1860
4167,1870,1858,1862
4177,1870,1856,1866
4187,1870,1856,1861
4197,1869,1858,1861
4207,1870,1858,1861
4217,1869,1861,1863
4227,1870,1861,1865
4237,1868,1857,1863
4247,1870,1858,1865
4257,1869,1859,1862
4267,1870,1858,1859
4277,1870,1856,1861
4287,1866,1855,1861
4297,1869,1856,1861
4307,1867,1858,1857
4317,1868,1858,1859
4327,1867,1856,1857
4337,1865,1857,1856
4347,1862,1855,1852
4357,1863,1855,1855
4367,1863,1856,1855
4377,1863,1853,1855
4387,1867,1854,1855
4397,1867,1856,1850
4407,1867,1857,1853
4417,1868,1857,1854
4427,1865,1856,1852
4437,1867,1856,1851
4447,1863,1856,1854
4457,1867,1856,1855
4467,1868,1857,1851
4477,1868,1856,1855
4487,1869,1855,1853
4497,1867,1854,1855
4507,1866,1856,1853
4517,1866,1856,1856
4527,1868,1854,1854
4537,1867,1855,1855
4547,1865,1856,1857
4557,1868,1857,1855
4567,1870,1856,1853
4577,1871,1858,1857
4587,1872,1856,1857
4597,1872,1858,1859
4607,1874,1863,1861
4617,1877,1863,1867
4627,1883,1867,1869
4637,1885,1871,1872
4647,1885,1872,1872
4657,1885,1872,1873
4667,1885,1872,1878
4677,1887,1874,1877
4687,1883,1872,1877
4697,1884,1872,1873
4707,1878,1871,1876
4717,1876,1871,1873
4727,1872,1869,1872
4737,1872,1866,1873
4747,1872,1867,1871
4757,1869,1863,1870
4767,1868,1863,1862
4777,1866,1863,1863
4787,1865,1860,1861
4797,1863,1862,1856
4807,1866,1861,1863
4817,1860,1856,1855
4827,1861,1855,1858
4837,1862,1856,1857
4847,1863,1856,1854
4857,1865,1857,1857
4867,1870,1857,1855
4877,1868,1858,1858
4887,1870,1856,1857
4897,1869,1858,1858
4907,1871,1858,1856
4917,1870,1860,1858
4927,1871,1862,1859
4937,1872,1865,1861
4947,1871,1858,1861
4957,1871,1861,1862
4967,1870,1859,1859
4977,1870,1859,1859
4987,1869,1861,1857
4997,1869,1858,1861
5007,1868,1857,1858
5017,1866,1859,1861
5027,1867,1856,1856
5037,1866,1855,1855
5047,1866,1857,1857
5057,1865,1857,1857
5067,1863,1855,1854
5077,1866,1857,1856
5087,1866,1857,1855
5097,1863,1856,1856
5107,1866,1856,1856
5117,1865,1855,1855
5127,1865,1856,1855
5137,1867,1856,1855
5147,1867,1855,1857
5157,1865,1854,1855
5167,1869,1854,1856
5177,1865,1856,1851
5187,1866,1855,1854
5197,1869,1855,1856
5207,1867,1855,1856
5217,1863,1854,1854
5227,1863,1856,1854
5237,1866,1855,1856
5247,1867,1855,1855
5257,1867,1857,1856
5267,1871,1857,1855
5277,1870,1858,1856
5287,1872,1858,1856
5297,1872,1857,1856
5307,1872,1860,1858
5317,1874,1862,1860
5327,1875,1863,1860
5337,1881,1871,1867
5347,1883,1871,1870
5357,1885,1871,1872
5367,1883,1872,1873
5377,1883,1873,1874
5387,1886,1872,1873
5397,1885,1874,1872
5407,1885,1872,1872
5417,1879,1872,1872
5427,1880,1872,1872
5437,1877,1869,1872
5447,1872,1867,1872
5457,1872,1867,1870
5467,1871,1865,1862
5477,1871,1858,1862
5487,1867,1857,1862
5497,1866,1857,1860
5507,1866,1860,1856
5517,1863,1856,1857
5527,1861,1858,1855
5537,1863,1856,1857
5547,1865,1857,1854
5557,1867,1855,1854
5567,1865,1857,1853
5577,1867,1857,1853
5587,1871,1856,1856
5597,1871,1858,1854
5607,1871,1857,1856
5617,1869,1861,1856
5627,1871,1858,1859
5637,1871,1859,1858
5647,1869,1859,1857
5657,1870,1862,1858
5667,1870,1859,1861
5677,1870,1865,1858
5687,1871,1857,1855
5697,1866,1857,1857
5707,1867,1859,1856
5717,1867,1857,1856
5727,1866,1857,1857
5737,1866,1856,1856
5747,1862,1854,1854
5757,1862,1855,1853
5767,1862,1855,1856
5777,1865,1856,1856
5787,1866,1855,1852
5797,1867,1856,1855
5807,1867,1854,1856
5817,1869,1853,1855
5827,1863,1854,1856
5837,1863,1854,1850
5847,1866,1855,1853
5857,1868,1854,1854
5867,1866,1855,1851
5877,1866,1854,1853
5887,1868,1855,1854
5897,1865,1854,1854
5907,1866,1858,1853
5917,1868,1852,1852
5927,1866,1856,1853
5937,1869,1855,1853
5947,1865,1855,1853
5957,1869,1855,1851
5967,1866,1855,1854
5977,1865,1855,1856
5987,1868,1855,1853
5997,1867,1854,1854
6007,1868,1858,1855
6017,1872,1855,1856
6027,1872,1857,1856
6037,1872,1856,1857
6047,1873,1862,1861
6057,1875,1863,1859
6067,1884,1867,1863
6077,1883,1872,1867
6087,1883,1870,1871
6097,1887,1869,1872
6107,1886,1872,1872
6117,1887,1872,1870
6127,1886,1872,1873
6137,1885,1872,1872
6147,1883,1870,1872
6157,1879,1872,1874
6167,1878,1870,1872
6177,1875,1867,1869
6187,1872,1865,1867
6197,1872,1862,1866
6207,1871,1862,1861
6217,1863,1860,1861
6227,1865,1861,1860
6237,1861,1859,1857
6247,1863,1856,1859
6257,1862,1858,1856
6267,1859,1856,1856
6277,1862,1856,1856
6287,1861,1855,1856
6297,1863,1855,1856
6307,1864,1856,1855
6317,1863,1855,1855
6327,1863,1857,1855
6337,1866,1859,1853
6347,1865,1855,1856
6357,1869,1859,1856
6367,1869,1857,1857
6377,1871,1857,1857
6387,1870,1858,1858
6397,1869,1859,1856
6407,1869,1858,1857
6417,1869,1856,1857
6427,1869,1859,1859
6437,1866,1855,1856
6447,1868,1856,1857
6457,1867,1854,1855
6467,1866,1856,1857
6477,1866,1855,1856
6487,1866,1855,1855
6497,1865,1854,1853
6507,1868,1855,1854
6517,1864,1854,1851
6527,1863,1853,1854
6537,1863,1854,1851
6547,1864,1853,1852
6557,1866,1854,1849
6567,1863,1852,1853
6577,1863,1855,1851
6587,1865,1853,1850
6597,1867,1855,1853
6607,1863,1852,1847
6617,1863,1853,1853
6627,1863,1854,1849
6637,1863,1854,1851
6647,1864,1853,1850
6657,1866,1853,1849
6667,1866,1855,1849
6677,1866,1853,1853
6687,1869,1855,1847
6697,1863,1853,1850
6707,1867,1850,1849
6717,1867,1854,1849
6727,1868,1853,1847
6737,1865,1853,1849
6747,1864,1851,1846
6757,1865,1852,1847
6767,1866,1854,1843
6777,1869,1855,1847
6787,1872,1857,1850
6797,1872,1857,1851
6807,1872,1857,1851
6817,1873,1861,1853
6827,1878,1862,1855
6837,1879,1866,1857
6847,1882,1865,1856
6857,1885,1869,1859
6867,1882,1871,1863
6877,1885,1871,1865
6887,1885,1872,1862
6897,1883,1870,1866
6907,1879,1872,1865
6917,1877,1868,1863
6927,1876,1869,1866
6937,1873,1868,1863
6947,1872,1866,1863
6957,1872,1865,1863
6967,1871,1861,1865
6977,1866,1859,1858
6987,1866,1856,1858
6997,1862,1857,1856
7007,1861,1855,1857
7017,1859,1856,1859
7027,1861,1851,1855
7037,1859,1853,1855
7047,1861,1854,1854
7057,1863,1853,1855
7067,1863,1855,1853
7077,1863,1856,1855
7087,1867,1856,1856
7097,1869,1856,1855
7107,1867,1857,1857
7117,1870,1856,1856
7127,1867,1857,1857
7137,1869,1857,1856
7147,1870,1858,1861
7157,1867,1856,1857
7167,1867,1858,1859
7177,1869,1855,1857
7187,1866,1855,1858
7197,1871,1856,1857
7207,1867,1857,1857
7217,1869,1858,1859
7227,1867,1856,1859
7237,1866,1856,1855
7247,1867,1855,1857
7257,1865,1855,1854
7267,1862,1855,1856
7277,1867,1856,1856
7287,1863,1855,1856
7297,1863,1855,1855
7307,1865,1855,1854
7317,1866,1855,1856
7327,1866,1855,1856
7337,1867,1855,1856
7347,1863,1855,1855
7357,1866,1855,1855
7367,1868,1851,1856
7377,1866,1853,1856
7387,1866,1855,1856
7397,1865,1856,1856
7407,1866,1855,1855
7417,1867,1856,1854
7427,1867,1856,1856
7437,1869,1856,1852
7447,1867,1856,1855
7457,1869,1854,1856
7467,1869,1855,1857
7477,1867,1856,1857
7487,1867,1857,1856
7497,1869,1857,1859
7507,1870,1856,1856
7517,1871,1856,1858
7527,1870,1854,1858
7537,1872,1857,1859
7547,1872,1861,1860
7557,1872,1859,1861
7567,1874,1865,1863
7577,1875,1862,1869
7587,1881,1865,1868
7597,1882,1870,1870
7607,1884,1870,1872
7617,1882,1870,1872
7627,1881,1872,1872
7637,1879,1871,1872
7647,1876,1871,1872
7657,1874,1870,1872
7667,1875,1870,1872
7677,1873,1870,1872
7687,1873,1866,1872
7697,1872,1863,1871
7707,1869,1859,1867
7717,1869,1859,1867
7727,1865,1861,1869
7737,1863,1859,1867
7747,1862,1856,1863
7757,1861,1856,1860
7767,1861,1856,1858
7777,1861,1856,1861
7787,1859,1855,1862
7797,1863,1854,1858
7807,1863,1856,1858
7817,1867,1856,1861
7827,1866,1858,1859
7837,1867,1855,1862
7847,1869,1858,1863
7857,1869,1857,1863
7867,1869,1857,1863
7877,1871,1858,1861
7887,1872,1859,1860
7897,1871,1857,1863
7907,1869,1859,1861
7917,1871,1856,1859
7927,1871,1858,1861
7937,1871,1856,1863
7947,1869,1859,1861
7957,1868,1857,1858
7967,1869,1857,1859
7977,1867,1857,1860
7987,1871,1857,1858
7997,1870,1859,1857
8007,1863,1856,1857
8017,1869,1856,1856
8027,1867,1856,1856
8037,1865,1843,1856
8047,1866,1855,1858
8057,1863,1855,1857
8067,1869,1854,1856
8077,1869,1853,1856
8087,1865,1858,1857
8097,1868,1855,1863
8107,1869,1860,1856
8117,1862,1856,1854
8127,1867,1855,1856
8137,1870,1855,1853
8147,1866,1855,1863
8157,1870,1855,1858
8167,1870,1859,1856
8177,1867,1856,1857
8187,1867,1856,1857
8197,1869,1852,1856
8207,1869,1857,1859
8217,1869,1856,1858
8227,1869,1853,1855
8237,1865,1853,1857
8247,1866,1855,1858
8257,1866,1857,1858
8267,1863,1854,1854
8277,1866,1856,1856
8287,1867,1856,1857
8297,1869,1856,1856
8307,1871,1856,1856
8317,1872,1857,1857
8327,1872,1859,1860
8337,1877,1862,1865
8347,1879,1863,1868
8357,1881,1867,1870
8367,1881,1871,1871
8377,1883,1872,1872
8387,1883,1870,1872
8397,1887,1872,1877
8407,1884,1870,1878
8417,1881,1872,1873
8427,1878,1870,1873
8437,1875,1871,1875
8447,1872,1868,1875
8457,1872,1868,1871
8467,1872,1865,1871
8477,1874,1861,1870
8487,1867,1860,1869
8497,1867,1856,1866
8507,1862,1857,1863
8517,1863,1854,1859
8527,1865,1856,1859
8537,1860,1855,1857
8547,1863,1856,1856
8557,1863,1855,1857
8567,1867,1856,1855
8577,1862,1852,1856
8587,1863,1855,1855
8597,1867,1854,1857
8607,1866,1855,1856
8617,1869,1856,1855
8627,1870,1856,1857
8637,1869,1856,1857
8647,1869,1856,1860
8657,1871,1857,1855
8667,1868,1856,1859
8677,1869,1857,1857
8687,1869,1858,1858
8697,1871,1858,1861
8707,1869,1858,1858
8717,1866,1855,1861
8727,1867,1856,1859
8737,1867,1857,1858
8747,1870,1855,1857
8757,1866,1856,1858
8767,1869,1857,1856
8777,1868,1855,1857
8787,1867,1856,1856
8797,1867,1855,1856
8807,1866,1854,1853
8817,1867,1856,1855
8827,1870,1855,1854
8837,1862,1855,1853
8847,1862,1855,1853
8857,1866,1856,1856
8867,1865,1855,1853
8877,1867,1856,1854
8887,1866,1855,1855
8897,1867,1854,1854
8907,1866,1853,1855
8917,1868,1853,1856
8927,1867,1855,1854
8937,1863,1855,1853
8947,1864,1856,1853
8957,1867,1856,1856
8967,1867,1855,1853
8977,1865,1856,1854
8987,1866,1855,1856
8997,1868,1854,1853
9007,1866,1856,1856
9017,1870,1856,1854
9027,1870,1855,1854
9037,1866,1853,1854
9047,1871,1853,1855
9057,1872,1857,1855
9067,1868,1857,1857
9077,1872,1856,1860
9087,1877,1859,1861
9097,1875,1861,1867
9107,1879,1865,1867
9117,1879,1865,1869
9127,1877,1867,1872
9137,1885,1870,1873
9147,1881,1872,1875
9157,1877,1872,1873
9167,1879,1869,1874
9177,1878,1869,1875
9187,1874,1869,1876
9197,1876,1868,1874
9207,1872,1862,1872
9217,1872,1870,1872
9227,1871,1863,1867
9237,1869,1863,1867
9247,1865,1857,1862
9257,1863,1858,1861
9267,1867,1855,1859
9277,1863,1856,1857
9287,1863,1854,1857
9297,1863,1854,1855
9307,1863,1856,1857
9317,1865,1854,1854
9327,1863,1852,1852
9337,1866,1853,1855
9347,1869,1855,1856
9357,1867,1853,1855
9367,1867,1856,1855
9377,1868,1857,1855
9387,1869,1856,1858
9397,1870,1858,1858
9407,1870,1855,1858
9417,1870,1859,1856
9427,1869,1856,1857
9437,1869,1859,1859
9447,1869,1857,1859
9457,1869,1856,1857
9467,1869,1857,1856
9477,1868,1856,1857
9487,1868,1856,1857
9497,1866,1856,1856
9507,1867,1853,1853
9517,1866,1852,1854
9527,1867,1856,1855
9537,1865,1853,1854
9547,1863,1855,1855
9557,1865,1855,1855
9567,1865,1855,1855
9577,1866,1855,1854
9587,1869,1854,1851
9597,1866,1855,1855
9607,1868,1855,1855
9617,1870,1856,1855
9627,1866,1854,1853
9637,1865,1854,1854
9647,1871,1855,1854
9657,1869,1856,1854
9667,1867,1855,1853
9677,1866,1856,1854
9687,1869,1857,1853
9697,1865,1854,1855
9707,1870,1855,1854
9717,1870,1854,1857
9727,1871,1856,1855
9737,1866,1854,1854
9747,1866,1855,1856
9757,1866,1855,1852
9767,1872,1856,1854
9777,1872,1856,1856
9787,1871,1857,1856
9797,1870,1859,1857
9807,1873,1859,1859
9817,1873,1858,1860
9827,1878,1862,1865
9837,1878,1866,1863
9847,1876,1867,1867
9857,1879,1868,1869
9867,1882,1869,1869
9877,1881,1872,1872
9887,1879,1869,1871
9897,1877,1866,1871
9907,1875,1867,1870
9917,1872,1866,1867
9927,1872,1863,1870
9937,1870,1861,1869
9947,1869,1858,1866
9957,1870,1857,1865
9967,1867,1858,1860
9977,1867,1857,1862
9987,1863,1856,1858
9997,1866,1856,1856
10007,1863,1855,1856
10017,1863,1856,1857
10027,1861,1854,1856
10037,1863,1854,1855
10047,1866,1853,1858
10057,1865,1856,1857
10067,1869,1856,1856
10077,1869,1858,1854
10087,1867,1856,1857
10097,1869,1858,1857
10107,1872,1858,1857
10117,1870,1859,1859
10127,1872,1858,1857
10137,1869,1857,1860
10147,1872,1861,1859
10157,1870,1858,1861
10167,1870,1857,1861
10177,1870,1856,1856
10187,1868,1857,1861
10197,1869,1858,1858
10207,1866,1857,1856
10217,1867,1858,1857
10227,1869,1857,1863
10237,1868,1858,1856
10247,1869,1857,1857
10257,1869,1855,1856
10267,1866,1856,1860
10277,1867,1858,1857
10287,1869,1860,1857
10297,1869,1857,1863
10307,1869,1858,1858
10317,1867,1855,1858
10327,1867,1858,1856
10337,1868,1855,1857
10347,1869,1858,1860
10357,1869,1856,1855
10367,1868,1854,1856
10377,1870,1856,1858
10387,1869,1857,1856
10397,1867,1855,1857
10407,1867,1855,1856
10417,1866,1856,1857
10427,1866,1853,1857
10437,1868,1855,1857
10447,1870,1856,1857
10457,1869,1856,1858
10467,1871,1856,1857
10477,1870,1858,1858
10487,1872,1860,1858
10497,1872,1861,1862
10507,1875,1861,1861
10517,1875,1865,1861
10527,1879,1867,1866
10537,1882,1871,1869
10547,1881,1871,1869
10557,1881,1872,1872
10567,1886,1872,1872
10577,1886,1872,1873
10587,1879,1871,1872
10597,1878,1872,1872
10607,1879,1872,1872
10617,1875,1870,1872
10627,1875,1868,1871
10637,1872,1867,1868
10647,1872,1867,1869
10657,1872,1866,1866
10667,1870,1863,1863
10677,1867,1860,1861
10687,1866,1859,1862
10697,1866,1858,1858
10707,1862,1855,1858
10717,1862,1858,1860
10727,1865,1856,1857
10737,1864,1858,1857
10747,1866,1855,1856
10757,1862,1853,1859
10767,1866,1856,1856
10777,1867,1856,1857
10787,1871,1859,1858
10797,1869,1857,1857
10807,1871,1856,1861
10817,1869,1859,1862
10827,1871,1858,1861
10837,1872,1858,1863
10847,1871,1859,1859
10857,1871,1857,1859
10867,1871,1857,1863
10877,1871,1861,1863
10887,1870,1859,1861
10897,1869,1858,1863
10907,1869,1858,1857
10917,1869,1862,1859
10927,1867,1856,1859
10937,1868,1856,1856
10947,1866,1855,1860
10957,1865,1856,1857
10967,1866,1855,1859
10977,1870,1857,1855
10987,1866,1856,1859
10997,1866,1853,1856
11007,1865,1856,1857
11017,1863,1855,1857
11027,1865,1856,1859
11037,1865,1856,1856
11047,1864,1857,1858
11057,1867,1856,1858
11067,1866,1857,1861
11077,1866,1856,1856
11087,1867,1855,1856
11097,1867,1856,1856
11107,1865,1853,1857
11117,1868,1855,1859
11127,1870,1854,1857
11137,1866,1853,1856
11147,1865,1855,1857
11157,1868,1856,1859
11167,1866,1856,1858
11177,1867,1855,1856
11187,1867,1856,1857
11197,1871,1857,1857
11207,1871,1857,1859
11217,1872,1859,1861
11227,1875,1861,1862
11237,1874,1862,1861
11247,1877,1863,1867
11257,1882,1869,1870
11267,1885,1871,1869
11277,1885,1869,1872
11287,1889,1868,1872
11297,1887,1872,1873
11307,1885,1875,1872
11317,1883,1873,1873
11327,1882,1871,1873
11337,1878,1872,1874
11347,1878,1872,1873
11357,1874,1872,1872
11367,1872,1868,1871
11377,1872,1863,1872
11387,1871,1863,1870
11397,1867,1862,1867
11407,1866,1858,1863
11417,1867,1856,1863
11427,1862,1857,1862
11437,1863,1856,1860
11447,1859,1855,1861
11457,1863,1856,1862
11467,1866,1856,1858
11477,1863,1855,1858
11487,1863,1858,1861
11497,1867,1857,1859
11507,1865,1857,1858
11517,1868,1856,1857
11527,1867,1858,1861
11537,1871,1859,1860
11547,1870,1859,1862
11557,1872,1858,1860
11567,1871,1857,1861
11577,1869,1859,1863
11587,1872,1859,1861
11597,1874,1856,1860
11607,1870,1860,1860
11617,1867,1857,1861
11627,1869,1859,1860
11637,1869,1857,1859
11647,1863,1858,1859
11657,1865,1856,1860
11667,1866,1855,1856
11677,1869,1854,1859
11687,1863,1856,1861
11697,1866,1856,1858
11707,1863,1855,1858
11717,1865,1854,1857
11727,1863,1855,1860
11737,1863,1856,1858
11747,1863,1855,1856
11757,1872,1856,1857
11767,1869,1855,1857
11777,1872,1854,1856
11787,1867,1856,1858
11797,1867,1856,1859
11807,1870,1855,1858
11817,1867,1855,1856
11827,1870,1855,1857
11837,1867,1856,1857
11847,1865,1851,1856
11857,1867,1855,1857
11867,1869,1853,1858
11877,1866,1853,1858
11887,1867,1854,1857
11897,1866,1856,1860
11907,1868,1853,1856
11917,1869,1855,1857
11927,1871,1859,1861
11937,1872,1856,1861
11947,1873,1858,1861
11957,1875,1862,1866
11967,1877,1862,1867
11977,1879,1865,1869
11987,1882,1866,1872
11997,1882,1872,1872
12007,1882,1872,1872
12017,1884,1871,1873
12027,1883,1871,1874
12037,1882,1870,1874
12047,1878,1871,1875
12057,1878,1867,1873
12067,1872,1869,1873
12077,1872,1867,1873
12087,1872,1863,1872
12097,1870,1862,1869
12107,1869,1858,1872
12117,1867,1858,1866
12127,1863,1859,1867
12137,1863,1858,1862
12147,1863,1857,1862
12157,1863,1857,1863
12167,1867,1856,1861
12177,1863,1856,1861
12187,1863,1855,1859
12197,1867,1857,1861
12207,1867,1856,1859
12217,1870,1856,1862
12227,1870,1856,1861
12237,1867,1860,1861
12247,1872,1858,1864
12257,1870,1858,1863
12267,1873,1859,1862
12277,1871,1857,1862
12287,1872,1857,1862
12297,1871,1858,1861
12307,1871,1859,1862
12317,1871,1857,1861
12327,1870,1858,1862
12337,1870,1860,1862
12347,1869,1856,1860
12357,1867,1857,1860
12367,1867,1856,1858
12377,1866,1857,1859
12387,1867,1856,1858
12397,1866,1856,1856
12407,1863,1856,1860
12417,1863,1854,1856
12427,1865,1857,1857
12437,1865,1855,1856
12447,1865,1855,1853
12457,1866,1854,1856
12467,1867,1853,1857
12477,1866,1856,1857
12487,1866,1855,1857
12497,1866,1855,1856
12507,1866,1854,1857
12517,1862,1855,1857
12527,1867,1855,1857
12537,1869,1856,1856
12547,1868,1856,1857
12557,1867,1855,1857
12567,1866,1856,1856
12577,1870,1855,1854
12587,1871,1854,1857
12597,1863,1855,1855
12607,1868,1854,1857
12617,1867,1855,1856
12627,1866,1856,1860
12637,1870,1854,1857
12647,1872,1857,1859
12657,1872,1857,1861
12667,1875,1859,1863
12677,1877,1864,1866
12687,1884,1867,1871
12697,1883,1869,1872
12707,1886,1872,1874
12717,1889,1872,1877
12727,1889,1872,1875
12737,1889,1872,1882
12747,1891,1873,1879
12757,1885,1872,1882
12767,1888,1872,1877
12777,1885,1872,1878
12787,1879,1869,1874
12797,1879,1869,1872
12807,1874,1867,1874
12817,1875,1865,1872
12827,1872,1860,1871
12837,1870,1859,1867
12847,1870,1859,1869
12857,1868,1856,1862
12867,1866,1858,1859
12877,1865,1855,1859
12887,1867,1856,1861
12897,1866,1853,1859
12907,1869,1857,1861
12917,1868,1855,1861
12927,1868,1856,1859
12937,1869,1858,1858
12947,1870,1856,1861
12957,1872,1858,1859
12967,1872,1861,1859
12977,1872,1857,1862
12987,1872,1860,1861
12997,1870,1857,1863
13007,1871,1859,1862
13017,1872,1857,1863
13027,1872,1857,1865
13037,1870,1858,1863
13047,1872,1859,1862
13057,1869,1858,1861
13067,1866,1858,1863
13077,1866,1858,1860
13087,1867,1856,1858
13097,1865,1856,1859
13107,1867,1857,1858
13117,1863,1856,1858
13127,1865,1856,1857
13137,1866,1855,1856
13147,1866,1851,1856
13157,1865,1854,1855
13167,1865,1853,1855
13177,1867,1852,1856
13187,1866,1851,1857
13197,1865,1855,1855
13207,1865,1856,1856
13217,1865,1856,1854
13227,1866,1853,1856
13237,1867,1855,1856
13247,1863,1854,1856
13257,1863,1856,1858
13267,1866,1854,1857
13277,1869,1855,1854
13287,1862,1855,1855
13297,1865,1854,1855
13307,1871,1854,1857
13317,1866,1854,1855
13327,1867,1855,1857
13337,1869,1853,1855
13347,1869,1853,1855
13357,1868,1853,1854
13367,1867,1856,1855
13377,1870,1856,1856
13387,1872,1857,1857
13397,1872,1858,1861
13407,1876,1861,1862
13417,1879,1861,1866
13427,1882,1866,1868
13437,1884,1868,1872
13447,1886,1872,1872
13457,1887,1872,1872
13467,1892,1872,1878
13477,1890,1872,1878
13487,1889,1872,1879
13497,1889,1871,1882
13507,1885,1871,1875
13517,1885,1871,1878
13527,1878,1869,1876
13537,1876,1871,1873
13547,1875,1867,1872
13557,1872,1862,1872
13567,1871,1863,1872
13577,1868,1862,1866
13587,1868,1859,1869
13597,1865,1857,1862
13607,1862,1857,1859
13617,1862,1853,1858
13627,1861,1855,1861
13637,1861,1857,1858
13647,1862,1857,1858
13657,1863,1855,1857
13667,1867,1856,1857
13677,1864,1856,1856
13687,1869,1856,1856
13697,1868,1856,1859
13707,1867,1858,1859
13717,1869,1858,1858
13727,1871,1859,1859
13737,1870,1860,1859
13747,1871,1858,1861
13757,1870,1862,1859
13767,1871,1861,1861
13777,1870,1860,1859
13787,1871,1858,1858
13797,1867,1858,1856
13807,1869,1857,1856
13817,1867,1856,1855
13827,1867,1857,1856
13837,1865,1853,1854
13847,1869,1856,1851
13857,1866,1856,1851
13867,1865,1855,1847
13877,1866,1854,1847
13887,1863,1850,1849
13897,1868,1853,1849
13907,1866,1851,1846
13917,1862,1853,1847
13927,1861,1853,1846
13937,1865,1852,1842
13947,1863,1855,1842
13957,1866,1852,1841
13967,1866,1851,1840
13977,1863,1854,1840
13987,1864,1853,1840
13997,1867,1852,1840
14007,1867,1853,1840
14017,1865,1852,1840
14027,1866,1854,1840
14037,1866,1853,1840
14047,1866,1855,1839
14057,1863,1853,1838
14067,1866,1854,1840
14077,1866,1855,1840
14087,1866,1853,1840
14097,1866,1854,1841
14107,1869,1853,1840
14117,1867,1850,1842
14127,1870,1854,1843
14137,1870,1856,1846
14147,1868,1853,1851
14157,1870,1855,1845
14167,1872,1857,1851
14177,1875,1858,1847
14187,1877,1859,1853
14197,1881,1861,1855
14207,1882,1862,1854
14217,1883,1866,1854
14227,1881,1866,1854
14237,1885,1868,1856
14247,1889,1867,1854
14257,1882,1870,1856
14267,1882,1869,1851
14277,1881,1869,1853
14287,1879,1863,1855
14297,1872,1863,1849
14307,1872,1863,1851
14317,1871,1861,1850
14327,1867,1859,1852
14337,1867,1859,1850
14347,1861,1856,1854
14357,1862,1856,1851
14367,1864,1858,1852
14377,1863,1854,1853
14387,1861,1855,1856
14397,1860,1855,1854
14407,1863,1863,1856
14417,1865,1854,1857
14427,1866,1856,1861
14437,1867,1861,1857
14447,1872,1859,1858
14457,1869,1859,1859
14467,1872,1858,1865
14477,1872,1862,1865
14487,1871,1862,1863
14497,1872,1859,1863
14507,1872,1862,1865
14517,1871,1869,1862
14527,1872,1861,1865
14537,1869,1861,1866
14547,1867,1859,1863
14557,1869,1857,1869
14567,1867,1860,1863
14577,1867,1857,1861
14587,1866,1855,1862
14597,1862,1855,1862
14607,1861,1859,1857
14617,1863,1856,1858
14627,1860,1854,1862
14637,1863,1855,1860
14647,1862,1855,1857
14657,1859,1853,1857
14667,1864,1853,1857
14677,1865,1856,1857
14687,1862,1854,1858
14697,1862,1855,1858
14707,1863,1855,1857
14717,1867,1854,1860
14727,1871,1854,1859
14737,1869,1856,1857
14747,1869,1854,1856
14757,1867,1857,1856
14767,1870,1856,1858
14777,1867,1856,1857
14787,1870,1851,1857
14797,1867,1855,1859
14807,1868,1857,1857
14817,1870,1854,1856
14827,1867,1855,1858
14837,1869,1857,1860
14847,1870,1858,1861
14857,1872,1856,1857
14867,1870,1856,1858
14877,1874,1857,1859
14887,1872,1859,1859
14897,1873,1861,1859
14907,1878,1867,1866
14917,1878,1865,1867
14927,1884,1865,1870
14937,1887,1870,1871
14947,1892,1873,1871
14957,1888,1872,1872
14967,1887,1872,1872
14977,1893,1873,1874
14987,1889,1874,1873
14997,1890,1872,1876
15007,1887,1872,1872
15017,1886,1872,1873
15027,1882,1870,1872
15037,1875,1869,1872
15047,1874,1865,1872
15057,1871,1863,1869
15067,1870,1863,1866
15077,1871,1863,1867
15087,1867,1861,1867
15097,1866,1857,1866
15107,1867,1857,1863
15117,1863,1856,1861
15127,1865,1856,1863
15137,1868,1856,1861
15147,1868,1856,1861
15157,1868,1857,1858
15167,1866,1857,1859
15177,1870,1857,1861
15187,1867,1857,1860
15197,1869,1858,1858
15207,1870,1858,1858
15217,1871,1861,1861
15227,1871,1859,1862
15237,1870,1858,1860
15247,1870,1858,1861
15257,1867,1860,1861
15267,1869,1857,1862
15277,1871,1858,1860
15287,1866,1858,1859
15297,1869,1857,1861
15307,1866,1858,1859
15317,1867,1856,1861
15327,1867,1856,1859
15337,1867,1856,1859
15347,1866,1855,1857
15357,1866,1855,1856
15367,1863,1854,1858
15377,1866,1855,1858
15387,1863,1855,1861
15397,1865,1854,1858
15407,1863,1852,1856
15417,1865,1853,1859
15427,1865,1855,1856
15437,1863,1853,1856
15447,1862,1855,1858
15457,1866,1854,1857
15467,1862,1855,1856
15477,1863,1855,1857
15487,1866,1854,1857
15497,1865,1854,1856
15507,1865,1856,1859
15517,1865,1855,1858
15527,1865,1856,1856
15537,1865,1854,1855
15547,1863,1854,1855
15557,1862,1850,1856
15567,1863,1855,1855
15577,1860,1856,1855
15587,1863,1853,1855
15597,1866,1854,1857
15607,1869,1855,1858
15617,1869,1853,1857
15627,1872,1856,1860
15637,1872,1857,1863
15647,1877,1857,1862
15657,1876,1862,1863
15667,1882,1867,1867
15677,1881,1868,1866
15687,1885,1865,1870
15697,1884,1872,1871
15707,1886,1871,1872
15717,1889,1872,1872
15727,1886,1871,1872
15737,1886,1869,1872
15747,1878,1872,1872
15757,1879,1870,1872
15767,1877,1869,1870
15777,1873,1863,1867
15787,1872,1861,1866
15797,1872,1859,1863
15807,1867,1857,1862
15817,1866,1858,1862
15827,1862,1854,1858
15837,1859,1855,1857
15847,1859,1854,1855
15857,1861,1847,1858
15867,1856,1853,1855
15877,1862,1851,1856
15887,1859,1853,1857
15897,1859,1850,1856
15907,1859,1854,1856
15917,1862,1854,1856
15927,1862,1853,1855
15937,1866,1856,1855
15947,1865,1855,1859
15957,1867,1855,1856
15967,1867,1856,1856
15977,1868,1855,1856
15987,1869,1856,1857
15997,1867,1856,1858
16007,1867,1857,1858
16017,1867,1856,1858
16027,1871,1857,1857
16037,1869,1855,1860
16047,1867,1855,1859
16057,1867,1856,1856
16067,1868,1856,1858
16077,1865,1856,1859
16087,1863,1855,1856
16097,1863,1854,1859
16107,1862,1850,1860
16117,1862,1851,1856
16127,1862,1854,1857
16137,1858,1850,1857
16147,1860,1851,1858
16157,1859,1855,1855
16167,1861,1853,1855
16177,1860,1851,1856
16187,1861,1852,1856
16197,1863,1854,1857
16207,1863,1853,1858
16217,1863,1855,1858
16227,1863,1856,1859
16237,1862,1855,1858
16247,1869,1855,1857
16257,1869,1856,1861
16267,1867,1856,1861
16277,1870,1857,1860
16287,1867,1854,1858
16297,1867,1855,1860
16307,1869,1855,1858
16317,1869,1855,1859
16327,1870,1856,1859
16337,1869,1856,1861
16347,1869,1858,1859
16357,1870,1856,1865
16367,1870,1856,1859
16377,1872,1856,1859
16387,1871,1858,1859
16397,1872,1859,1861
16407,1875,1860,1863
16417,1872,1866,1867
16427,1872,1860,1865
16437,1872,1863,1866
16447,1873,1862,1870
16457,1874,1868,1866
16467,1872,1866,1869
16477,1872,1862,1869
16487,1870,1861,1867
16497,1872,1862,1865
16507,1871,1860,1867
16517,1871,1859,1865
16527,1872,1857,1867
16537,1867,1857,1865
16547,1870,1855,1866
16557,1866,1855,1863
16567,1867,1857,1865
16577,1870,1857,1866
16587,1869,1856,1868
16597,1868,1857,1863
16607,1872,1856,1863
16617,1870,1860,1867
16627,1871,1859,1871
16637,1871,1856,1870
16647,1872,1858,1870
16657,1872,1858,1870
16667,1872,1858,1869
16677,1871,1859,1867
16687,1872,1857,1867
16697,1870,1860,1868
16707,1870,1858,1867
16717,1872,1856,1867
16727,1867,1857,1866
16737,1869,1857,1866
16747,1871,1855,1865
16757,1870,1858,1866
16767,1867,1856,1863
16777,1869,1855,1865
16787,1865,1853,1866
16797,1867,1855,1862
16807,1866,1856,1863
16817,1868,1855,1861
16827,1866,1857,1861
16837,1863,1854,1865
16847,1863,1856,1861
16857,1866,1855,1863
16867,1863,1853,1862
16877,1863,1855,1859
16887,1865,1854,1859
16897,1867,1858,1863
16907,1863,1855,1862
16917,1868,1855,1861
16927,1867,1856,1859
16937,1865,1854,1859
16947,1866,1855,1863
16957,1867,1857,1861
16967,1870,1856,1862
16977,1870,1857,1863
16987,1871,1856,1863
16997,1872,1857,1863
17007,1872,1859,1865
17017,1872,1859,1867
17027,1874,1866,1870
17037,1881,1862,1871
17047,1881,1867,1872
17057,1878,1869,1874
17067,1883,1867,1877
17077,1881,1870,1879
17087,1879,1867,1881
17097,1881,1871,1877
17107,1882,1871,1881
17117,1876,1867,1879
17127,1875,1869,1877
17137,1874,1867,1877
17147,1872,1861,1874
17157,1871,1866,1872
17167,1872,1859,1872
17177,1868,1863,1872
17187,1865,1858,1872
17197,1861,1856,1870
17207,1861,1859,1867
17217,1863,1856,1863
17227,1862,1856,1859
17237,1859,1854,1862
17247,1862,1854,1860
17257,1862,1855,1863
17267,1862,1854,1863
17277,1860,1853,1858
17287,1863,1856,1862
17297,1866,1856,1858
17307,1865,1857,1862
17317,1867,1856,1861
17327,1866,1857,1863
17337,1867,1856,1859
17347,1871,1856,1861
17357,1867,1861,1866
17367,1870,1859,1862
17377,1871,1856,1863
17387,1867,1857,1865
17397,1867,1860,1862
17407,1872,1857,1863
17417,1867,1857,1863
17427,1867,1856,1865
17437,1867,1856,1861
17447,1867,1857,1860
17457,1866,1855,1861
17467,1866,1858,1860
17477,1865,1856,1857
17487,1867,1856,1857
17497,1862,1856,1857
17507,1865,1854,1858
17517,1864,1855,1857
17527,1862,1855,1858
17537,1862,1856,1857
17547,1867,1855,1858
17557,1866,1855,1858
17567,1866,1854,1859
17577,1863,1855,1858
17587,1869,1855,1859
17597,1867,1855,1856
17607,1868,1857,1859
17617,1871,1858,1859
17627,1871,1857,1861
17637,1873,1858,1862
17647,1873,1859,1859
17657,1878,1862,1866
17667,1881,1863,1871
17677,1883,1867,1872
17687,1886,1870,1874
17697,1882,1867,1874
17707,1885,1871,1879
17717,1885,1870,1881
17727,1878,1872,1883
17737,1881,1871,1879
17747,1877,1868,1878
17757,1874,1868,1878
17767,1871,1867,1877
17777,1872,1867,1874
17787,1872,1857,1872
17797,1868,1863,1872
17807,1868,1861,1870
17817,1863,1859,1867
17827,1865,1856,1865
17837,1861,1856,1865
17847,1862,1856,1861
17857,1860,1855,1858
17867,1860,1853,1858
17877,1862,1854,1859
17887,1860,1854,1858
17897,1862,1855,1858
17907,1867,1856,1858
17917,1866,1856,1855
17927,1871,1854,1859
17937,1863,1855,1858
17947,1868,1857,1861
17957,1869,1859,1857
17967,1870,1858,1863
17977,1870,1856,1862
17987,1872,1859,1863
17997,1871,1859,1863
18007,1868,1857,1862
18017,1869,1858,1863
18027,1869,1862,1859
18037,1867,1859,1860
18047,1865,1857,1856
18057,1869,1858,1857
18067,1865,1859,1857
18077,1866,1857,1856
18087,1868,1855,1856
18097,1863,1856,1856
18107,1863,1855,1858
18117,1863,1856,1853
18127,1863,1855,1858
18137,1867,1856,1855
18147,1863,1857,1856
18157,1863,1856,1855
18167,1863,1854,1856
18177,1863,1854,1853
18187,1866,1855,1855
18197,1866,1853,1857
18207,1870,1856,1856
18217,1869,1858,1856
18227,1871,1856,1857
18237,1873,1858,1862
18247,1874,1858,1861
18257,1885,1863,1863
18267,1881,1866,1867
18277,1882,1867,1872
18287,1886,1868,1869
18297,1885,1866,1869
18307,1879,1867,1872
18317,1882,1868,1872
18327,1878,1871,1872
18337,1877,1871,1872
18347,1874,1869,1870
18357,1872,1869,1869
18367,1872,1868,1869
18377,1867,1861,1866
18387,1863,1858,1865
18397,1863,1861,1861
18407,1861,1858,1859
18417,1861,1858,1857
18427,1865,1856,1858
18437,1860,1855,1856
18447,1862,1856,1856
18457,1860,1854,1856
18467,1860,1856,1856
18477,1862,1856,1854
18487,1865,1857,1855
18497,1863,1855,1856
18507,1865,1856,1855
18517,1867,1856,1857
18527,1866,1854,1855
18537,1870,1856,1856
18547,1872,1859,1857
18557,1870,1858,1859
18567,1869,1857,1857
18577,1872,1856,1858
18587,1870,1856,1858
18597,1871,1858,1860
18607,1871,1856,1857
18617,1871,1861,1860
18627,1870,1856,1859
18637,1869,1859,1859
18647,1869,1857,1858
18657,1870,1856,1860
18667,1867,1856,1856
18677,1865,1854,1856
18687,1865,1855,1857
18697,1865,1856,1858
18707,1863,1856,1856
18717,1866,1856,1856
18727,1865,1856,1856
18737,1861,1851,1856
18747,1866,1856,1855
18757,1866,1856,1855
18767,1863,1853,1856
18777,1867,1854,1855
18787,1863,1855,1856
18797,1866,1854,1856
18807,1867,1855,1853
18817,1867,1852,1854
18827,1872,1856,1856
18837,1872,1858,1856
18847,1874,1857,1859
18857,1878,1862,1861
18867,1877,1867,1859
18877,1879,1863,1862
18887,1878,1867,1863
18897,1878,1870,1867
18907,1882,1866,1867
18917,1881,1866,1869
18927,1874,1866,1865
18937,1878,1866,1863
18947,1876,1866,1869
18957,1873,1865,1866
18967,1872,1863,1865
18977,1871,1862,1865
18987,1871,1859,1862
18997,1863,1861,1861
19007,1866,1858,1858
19017,1867,1856,1857
19027,1863,1855,1857
19037,1863,1855,1856
19047,1865,1855,1856
19057,1862,1855,1854
19067,1864,1853,1856
19077,1864,1855,1856
19087,1866,1854,1857
19097,1866,1856,1856
19107,1863,1855,1856
19117,1865,1856,1857
19127,1867,1853,1855
19137,1867,1856,1858
19147,1870,1856,1859
19157,1867,1856,1857
19167,1871,1855,1856
19177,1871,1856,1855
19187,1871,1859,1857
19197,1870,1856,1856
19207,1870,1856,1859
19217,1870,1858,1858
19227,1869,1857,1857
19237,1869,1857,1858
19247,1868,1859,1857
19257,1870,1859,1857
19267,1866,1856,1855
19277,1867,1856,1857
19287,1870,1854,1856
19297,1867,1858,1857
19307,1868,1855,1857
19317,1867,1855,1855
19327,1867,1855,1856
19337,1862,1855,1856
19347,1867,1856,1855
19357,1866,1856,1855
19367,1865,1853,1854
19377,1866,1856,1856
19387,1863,1856,1855
19397,1863,1856,1856
19407,1866,1855,1857
19417,1867,1854,1856
19427,1866,1855,1855
19437,1872,1857,1856
19447,1872,1856,1857
19457,1872,1857,1861
19467,1875,1856,1862
19477,1877,1863,1864
19487,1878,1863,1862
19497,1878,1866,1863
19507,1879,1866,1869
19517,1882,1867,1869
19527,1877,1866,1866
19537,1878,1869,1869
19547,1874,1864,1868
19557,1873,1863,1866
19567,1872,1862,1865
19577,1872,1861,1862
19587,1871,1858,1862
19597,1869,1856,1859
19607,1868,1856,1858
19617,1863,1854,1856
19627,1863,1856,1857
19637,1867,1855,1857
19647,1863,1851,1856
19657,1863,1855,1856
19667,1859,1851,1853
19677,1861,1851,1857
19687,1862,1852,1856
19697,1866,1855,1856
19707,1866,1854,1856
19717,1865,1851,1857
19727,1869,1851,1856
19737,1866,1855,1855
19747,1865,1855,1856
19757,1867,1855,1857
19767,1867,1856,1856
19777,1870,1857,1856
19787,1869,1855,1858
19797,1869,1858,1857
19807,1868,1855,1856
19817,1870,1855,1856
19827,1867,1856,1856
19837,1867,1856,1856
19847,1866,1856,1856
19857,1869,1856,1856
19867,1868,1856,1855
19877,1869,1856,1856
19887,1867,1855,1854
19897,1863,1857,1856
19907,1867,1854,1855
19917,1866,1856,1855
19927,1862,1852,1856
19937,1865,1854,1857
19947,1866,1850,1855
19957,1866,1855,1854
19967,1865,1856,1856
19977,1863,1854,1856
19987,1863,1854,1854
19997,1865,1854,1855
20007,1866,1852,1856
20017,1865,1855,1856
20027,1869,1856,1855
20037,1870,1854,1856
20047,1871,1856,1855
20057,1872,1855,1856
20067,1872,1857,1855
20077,1874,1858,1857
20087,1872,1858,1859
20097,1872,1861,1858
20107,1876,1857,1856
20117,1875,1862,1858
20127,1879,1862,1856
20137,1873,1861,1858
20147,1875,1861,1856
20157,1873,1860,1858
20167,1872,1858,1857
20177,1872,1861,1856
20187,1869,1856,1853
20197,1869,1857,1853
20207,1868,1858,1853
20217,1865,1857,1853
20227,1863,1851,1854
20237,1862,1853,1849
20247,1861,1851,1851
20257,1860,1851,1850
20267,1861,1853,1853
20277,1861,1851,1853
20287,1862,1855,1851
20297,1867,1853,1854
20307,1863,1854,1853
20317,1867,1856,1847
20327,1869,1856,1850
20337,1869,1856,1850
20347,1867,1856,1851
20357,1869,1857,1851
20367,1869,1853,1851
20377,1869,1855,1850
20387,1871,1856,1852
20397,1870,1855,1850
20407,1871,1858,1853
20417,1870,1856,1850
20427,1870,1855,1853
20437,1870,1855,1854
20447,1869,1853,1853
20457,1869,1856,1853
20467,1869,1855,1853
20477,1870,1855,1855
20487,1869,1854,1854
20497,1869,1854,1855
20507,1866,1857,1854
20517,1869,1856,1855
20527,1869,1856,1856
20537,1869,1854,1855
20547,1865,1856,1855
20557,1866,1855,1857
20567,1865,1854,1855
20577,1867,1853,1854
20587,1869,1855,1856
20597,1870,1855,1855
20607,1871,1854,1855
20617,1870,1857,1857
20627,1872,1856,1857
20637,1871,1855,1856
20647,1872,1856,1857
20657,1875,1859,1860
20667,1875,1861,1861
20677,1881,1864,1857
20687,1883,1861,1863
20697,1880,1863,1863
20707,1882,1863,1860
20717,1879,1865,1862
20727,1875,1864,1861
20737,1877,1863,1859
20747,1874,1861,1860
20757,1872,1863,1863
20767,1872,1863,1858
20777,1871,1859,1856
20787,1867,1857,1857
20797,1870,1857,1857
20807,1866,1856,1856
20817,1861,1857,1857
20827,1863,1854,1861
20837,1865,1855,1856
20847,1862,1851,1856
20857,1862,1854,1855
20867,1861,1856,1856
20877,1863,1855,1856
20887,1863,1855,1856
20897,1863,1859,1855
20907,1863,1857,1855
20917,1869,1854,1855
20927,1867,1858,1856
20937,1870,1858,1856
20947,1870,1855,1855
20957,1871,1854,1858
20967,1869,1858,1858
20977,1870,1857,1859
20987,1871,1857,1858
20997,1871,1854,1863
21007,1870,1858,1857
21017,1869,1860,1856
21027,1869,1855,1859
21037,1869,1859,1857
21047,1869,1847,1856
21057,1869,1853,1858
21067,1870,1855,1859
21077,1865,1856,1858
21087,1866,1856,1855
21097,1869,1856,1861
21107,1866,1856,1857
21117,1863,1856,1856
21127,1866,1856,1856
21137,1867,1855,1856
21147,1866,1857,1859
21157,1863,1855,1858
21167,1868,1857,1857
21177,1870,1857,1857
21187,1870,1856,1858
21197,1872,1857,1858
21207,1872,1858,1859
21217,1874,1858,1861
21227,1875,1858,1858
21237,1878,1862,1859
21247,1877,1861,1863
21257,1879,1861,1861
21267,1886,1866,1863
21277,1881,1863,1863
21287,1877,1863,1867
21297,1882,1869,1865
21307,1878,1863,1867
21317,1875,1863,1861
21327,1874,1862,1861
21337,1872,1862,1862
21347,1872,1861,1862
21357,1870,1861,1861
21367,1871,1857,1865
21377,1867,1856,1862
21387,1867,1854,1861
21397,1862,1854,1859
21407,1864,1857,1857
21417,1861,1856,1859
21427,1861,1855,1857
21437,1863,1855,1858
21447,1863,1857,1860
21457,1867,1854,1861
21467,1870,1854,1859
21477,1871,1857,1859
21487,1869,1857,1856
21497,1871,1856,1861
21507,1872,1858,1860
21517,1869,1857,1859
21527,1872,1859,1862
21537,1871,1856,1861
21547,1872,1857,1862
21557,1872,1858,1859
21567,1872,1857,1861
21577,1870,1858,1856
21587,1869,1857,1861
21597,1872,1859,1860
21607,1872,1859,1857
21617,1871,1857,1859
21627,1872,1859,1859
21637,1867,1859,1861
21647,1871,1856,1860
21657,1867,1856,1859
21667,1871,1857,1859
21677,1869,1855,1860
21687,1867,1858,1860
21697,1867,1857,1860
21707,1870,1857,1861
21717,1869,1855,1860
21727,1871,1858,1861
21737,1867,1856,1860
21747,1867,1855,1859
21757,1870,1856,1861
21767,1871,1854,1862
21777,1872,1856,1863
21787,1874,1859,1863
21797,1878,1859,1867
21807,1878,1863,1867
21817,1883,1860,1868
21827,1885,1866,1871
21837,1887,1866,1869
21847,1888,1868,1872
21857,1887,1866,1871
21867,1886,1870,1872
21877,1885,1869,1871
21887,1881,1867,1872
21897,1883,1865,1872
21907,1882,1863,1871
21917,1877,1863,1872
21927,1873,1862,1870
21937,1872,1862,1869
21947,1868,1859,1869
21957,1870,1856,1867
