timestamp_ms_device,ppg_finger1,ppg_finger2,ppg_finger3
1412762,1882,1872,1872
1412772,1887,1854,1841
1412782,1883,1872,1869
1412792,1878,1861,1854
1412802,1915,1872,1873
1412812,1882,1869,1869
1412822,1872,1863,1862
1412832,1856,1859,1860
1412842,1881,1869,1872
1412852,1889,1871,1876
1412862,1879,1871,1868
1412872,1872,1863,1861
1412882,1845,1855,1854
1412892,1872,1872,1873
1412902,1879,1878,1877
1412912,1872,1869,1869
1412922,1872,1862,1865
1412932,1866,1849,1847
1412942,1862,1862,1859
1412952,1890,1872,1863
1412962,1879,1871,1870
1412972,1872,1867,1869
1412982,1867,1861,1867
1412992,1864,1856,1858
1413002,1888,1872,1873
1413012,1877,1870,1872
1413022,1875,1872,1868
1413032,1851,1858,1863
1413042,1885,1872,1884
1413052,1897,1883,1897
1413062,1892,1872,1872
1413072,1888,1872,1874
1413082,1886,1870,1872
1413092,1879,1866,1872
1413102,1894,1875,1885
1413112,1899,1873,1878
1413122,1898,1872,1875
1413132,1856,1854,1858
1413142,1901,1875,1885
1413152,1889,1872,1872
1413162,1891,1872,1872
1413172,1882,1872,1872
1413182,1883,1862,1855
1413192,1874,1869,1872
1413202,1885,1874,1883
1413212,1875,1872,1867
1413222,1875,1869,1867
1413232,1842,1853,1852
1413242,1879,1871,1874
1413252,1868,1862,1859
1413262,1872,1871,1869
1413272,1872,1866,1869
1413282,1863,1867,1869
1413292,1851,1858,1854
1413302,1870,1867,1871
1413312,1877,1869,1869
1413322,1876,1867,1870
1413332,1890,1853,1847
1413342,1863,1862,1858
1413352,1872,1873,1869
1413362,1883,1870,1871
1413372,1881,1870,1872
1413382,1883,1869,1845
1413392,1865,1867,1865
1413402,1878,1872,1872
1413412,1889,1870,1871
1413422,1884,1872,1871
1413432,1878,1872,1875
1413442,1869,1863,1870
1413452,1885,1872,1872
1413462,1875,1870,1870
1413472,1879,1866,1867
1413482,1875,1871,1870
1413492,1879,1868,1859
1413502,1862,1859,1856
1413512,1877,1866,1870
1413522,1875,1871,1866
1413532,1872,1867,1870
1413542,1853,1856,1857
1413552,1871,1871,1869
1413562,1876,1877,1882
1413572,1872,1871,1871
1413582,1874,1869,1872
1413592,1857,1859,1859
1413602,1874,1869,1871
1413612,1905,1858,1872
1413622,1874,1867,1872
1413632,1878,1867,1870
1413642,1865,1856,1849
1413652,1863,1863,1862
1413662,1888,1871,1873
1413672,1879,1869,1871
1413682,1878,1872,1872
1413692,1878,1862,1871
1413702,1874,1855,1863
1413712,1891,1872,1883
1413722,1890,1872,1877
1413732,1891,1872,1873
1413742,1869,1845,1851
1413752,1891,1872,1873
1413762,1902,1872,1887
1413772,1904,1875,1879
1413782,1904,1874,1877
1413792,1875,1851,1853
1413802,1888,1867,1872
1413812,1898,1872,1878
1413822,1899,1872,1875
1413832,1892,1872,1872
1413842,1867,1850,1843
1413852,1869,1863,1856
1413862,1872,1869,1870
1413872,1889,1872,1872
1413882,1884,1871,1872
1413892,1840,1852,1847
1413902,1869,1865,1869
1413912,1879,1872,1872
1413922,1878,1872,1872
1413932,1874,1870,1871
1413942,1841,1859,1859
1413952,1872,1872,1873
1413962,1861,1856,1853
1413972,1879,1872,1872
1413982,1875,1868,1870
1413992,1853,1863,1866
1414002,1883,1864,1866
1414012,1867,1860,1855
1414022,1886,1871,1872
1414032,1882,1868,1871
1414042,1872,1854,1850
1414052,1872,1869,1873
1414062,1879,1865,1859
1414072,1892,1873,1876
1414082,1883,1872,1871
1414092,1876,1850,1857
1414102,1857,1857,1854
1414112,1872,1871,1874
1414122,1881,1873,1875
1414132,1876,1871,1872
1414142,1871,1869,1866
1414152,1872,1873,1872
1414162,1862,1864,1855
1414172,1882,1875,1875
1414182,1877,1867,1869
1414192,1872,1868,1869
1414202,1845,1858,1856
1414212,1880,1872,1876
1414222,1870,1872,1873
1414232,1877,1870,1871
1414242,1872,1865,1869
1414252,1882,1857,1859
1414262,1861,1857,1859
1414272,1872,1871,1867
1414282,1876,1867,1872
1414292,1872,1864,1867
1414302,1873,1851,1851
1414312,1867,1855,1859
1414322,1883,1872,1877
1414332,1880,1870,1872
1414342,1879,1865,1872
1414352,1893,1858,1860
1414362,1883,1857,1863
1414372,1903,1861,1879
1414382,1902,1872,1875
1414392,1898,1866,1877
1414402,1898,1857,1866
1414412,1891,1866,1870
1414422,1887,1873,1874
1414432,1894,1872,1874
1414442,1888,1869,1874
1414452,1873,1854,1851
1414462,1872,1865,1865
1414472,1874,1872,1883
1414482,1879,1872,1872
1414492,1877,1872,1871
1414502,1869,1872,1870
1414512,1867,1857,1861
1414522,1865,1863,1861
1414532,1872,1866,1872
1414542,1869,1863,1865
1414552,1855,1862,1869
1414562,1867,1859,1856
1414572,1860,1857,1865
1414582,1870,1867,1863
1414592,1870,1863,1863
1414602,1867,1867,1867
1414612,1856,1859,1854
1414622,1872,1867,1867
1414632,1872,1872,1866
1414642,1874,1867,1869
1414652,1875,1850,1850
1414662,1855,1860,1856
1414672,1872,1867,1870
1414682,1878,1866,1869
1414692,1877,1872,1871
1414702,1856,1841,1846
1414712,1871,1866,1868
1414722,1883,1863,1869
1414732,1874,1869,1867
1414742,1874,1871,1870
1414752,1879,1863,1849
1414762,1859,1849,1851
1414772,1865,1863,1862
1414782,1875,1867,1867
1414792,1881,1871,1867
1414802,1875,1870,1854
1414812,1865,1863,1862
1414822,1877,1872,1872
1414832,1875,1871,1866
1414842,1878,1866,1864
1414852,1877,1871,1871
1414862,1872,1865,1872
1414872,1873,1858,1855
1414882,1871,1873,1867
1414892,1878,1867,1867
1414902,1879,1871,1872
1414912,1877,1858,1862
1414922,1868,1865,1859
1414932,1891,1866,1875
1414942,1891,1872,1871
1414952,1893,1872,1874
1414962,1894,1873,1874
1414972,1889,1862,1869
1414982,1904,1872,1886
1414992,1904,1876,1879
1415002,1904,1873,1875
1415012,1880,1870,1878
1415022,1902,1877,1878
1415032,1910,1883,1873
1415042,1895,1872,1875
1415052,1894,1869,1872
1415062,1889,1867,1866
1415072,1866,1867,1863
1415082,1891,1874,1873
1415092,1883,1868,1872
1415102,1879,1865,1867
1415112,1874,1866,1872
1415122,1856,1858,1853
1415132,1875,1875,1878
1415142,1874,1871,1872
1415152,1872,1869,1866
1415162,1859,1859,1863
1415172,1858,1859,1854
1415182,1874,1866,1879
1415192,1884,1870,1872
1415202,1878,1871,1872
1415212,1870,1855,1862
1415222,1863,1855,1857
1415232,1874,1873,1872
1415242,1883,1872,1873
1415252,1882,1870,1872
1415262,1866,1873,1871
1415272,1883,1862,1866
1415282,1871,1866,1867
1415292,1884,1875,1872
1415302,1886,1870,1874
1415312,1853,1850,1846
1415322,1873,1863,1867
1415332,1880,1870,1867
1415342,1886,1874,1872
1415352,1874,1870,1872
1415362,1867,1855,1858
1415372,1855,1862,1862
1415382,1872,1872,1872
1415392,1882,1871,1874
1415402,1870,1868,1869
1415412,1843,1855,1857
1415422,1872,1867,1872
1415432,1866,1859,1859
1415442,1885,1872,1872
1415452,1875,1863,1871
1415462,1861,1845,1840
1415472,1869,1867,1870
1415482,1869,1855,1859
1415492,1887,1875,1872
1415502,1877,1871,1870
1415512,1885,1857,1849
1415522,1877,1872,1870
1415532,1902,1871,1883
1415542,1904,1874,1885
1415552,1904,1872,1878
1415562,1897,1869,1872
1415572,1906,1865,1872
1415582,1904,1874,1885
1415592,1901,1879,1892
1415602,1905,1874,1883
1415612,1895,1872,1874
1415622,1895,1873,1886
1415632,1882,1865,1870
1415642,1890,1872,1884
1415652,1886,1870,1872
1415662,1878,1870,1870
1415672,1856,1853,1849
1415682,1875,1872,1875
1415692,1891,1876,1906
1415702,1872,1867,1872
1415712,1867,1868,1868
1415722,1872,1850,1841
1415732,1855,1858,1865
1415742,1881,1869,1871
1415752,1867,1870,1871
1415762,1869,1859,1866
1415772,1853,1861,1865
1415782,1880,1872,1873
1415792,1894,1890,1870
1415802,1877,1867,1871
1415812,1874,1868,1866
1415822,1872,1872,1870
1415832,1863,1857,1859
1415842,1886,1873,1883
1415852,1885,1871,1871
1415862,1875,1871,1869
1415872,1866,1863,1863
1415882,1887,1862,1869
1415892,1874,1859,1872
1415902,1879,1872,1871
1415912,1873,1867,1869
1415922,1879,1851,1846
1415932,1863,1862,1867
1415942,1873,1872,1872
1415952,1876,1871,1872
1415962,1872,1868,1866
1415972,1844,1853,1855
1415982,1879,1872,1872
1415992,1865,1862,1861
1416002,1874,1868,1867
1416012,1872,1865,1866
1416022,1840,1842,1840
1416032,1866,1865,1865
1416042,1882,1870,1876
1416052,1871,1868,1862
1416062,1872,1869,1872
1416072,1855,1867,1866
1416082,1856,1858,1862
1416092,1870,1869,1874
1416102,1873,1871,1871
1416112,1878,1861,1867
1416122,1853,1853,1853
1416132,1887,1868,1869
1416142,1875,1862,1866
1416152,1891,1879,1888
1416162,1894,1874,1875
1416172,1872,1859,1862
1416182,1904,1879,1888
1416192,1904,1867,1872
1416202,1912,1882,1895
1416212,1904,1872,1881
1416222,1925,1858,1864
1416232,1887,1872,1877
1416242,1904,1878,1888
1416252,1895,1876,1880
1416262,1889,1871,1877
1416272,1904,1872,1853
1416282,1877,1861,1863
1416292,1871,1869,1866
1416302,1888,1885,1889
1416312,1872,1866,1869
1416322,1872,1879,1891
1416332,1870,1872,1873
1416342,1872,1863,1857
1416352,1869,1872,1880
1416362,1872,1869,1863
1416372,1873,1869,1871
1416382,1840,1851,1847
1416392,1870,1870,1872
1416402,1886,1870,1882
1416412,1874,1869,1872
1416422,1880,1873,1872
1416432,1883,1870,1872
1416442,1872,1858,1858
1416452,1906,1872,1875
1416462,1885,1872,1872
1416472,1881,1872,1874
1416482,1861,1863,1868
1416492,1875,1871,1871
1416502,1886,1886,1877
1416512,1885,1871,1873
1416522,1880,1871,1872
1416532,1872,1863,1866
1416542,1885,1870,1875
1416552,1869,1871,1872
1416562,1879,1872,1871
1416572,1875,1872,1871
1416582,1856,1846,1843
1416592,1861,1857,1856
1416602,1872,1872,1872
1416612,1879,1870,1869
1416622,1881,1868,1867
1416632,1840,1845,1843
1416642,1874,1867,1869
1416652,1879,1872,1873
1416662,1877,1872,1870
1416672,1875,1869,1872
1416682,1847,1854,1856
1416692,1882,1871,1870
1416702,1866,1856,1855
1416712,1885,1872,1873
1416722,1872,1867,1871
1416732,1859,1857,1854
1416742,1861,1854,1854
1416752,1866,1870,1870
1416762,1877,1872,1872
1416772,1879,1867,1872
1416782,1845,1853,1845
1416792,1875,1874,1883
1416802,1875,1856,1861
1416812,1895,1876,1874
1416822,1895,1872,1874
1416832,1893,1859,1866
1416842,1873,1868,1875
1416852,1910,1879,1887
1416862,1911,1880,1889
1416872,1905,1876,1886
1416882,1867,1872,1874
1416892,1885,1871,1875
1416902,1909,1882,1886
1416912,1905,1875,1884
1416922,1894,1873,1872
1416932,1885,1858,1867
1416942,1872,1854,1855
1416952,1874,1871,1870
1416962,1887,1873,1874
1416972,1876,1871,1871
1416982,1867,1863,1861
1416992,1860,1861,1865
1417002,1872,1861,1865
1417012,1875,1870,1872
1417022,1872,1866,1865
1417032,1860,1865,1863
1417042,1840,1853,1855
1417052,1868,1866,1870
1417062,1877,1867,1872
1417072,1872,1870,1871
1417082,1867,1867,1862
1417092,1859,1861,1863
1417102,1885,1873,1875
1417112,1884,1883,1877
1417122,1877,1870,1872
1417132,1875,1869,1865
1417142,1872,1866,1872
1417152,1887,1865,1863
1417162,1889,1872,1870
1417172,1881,1871,1872
1417182,1875,1869,1865
1417192,1882,1857,1859
1417202,1865,1863,1858
1417212,1902,1872,1872
1417222,1875,1872,1872
1417232,1872,1870,1870
1417242,1850,1858,1860
1417252,1870,1869,1869
1417262,1872,1868,1870
1417272,1871,1870,1867
1417282,1871,1862,1866
1417292,1838,1857,1855
1417302,1862,1866,1869
1417312,1874,1870,1875
1417322,1871,1867,1868
1417332,1872,1866,1862
1417342,1834,1847,1840
1417352,1875,1869,1869
1417362,1874,1870,1867
1417372,1873,1867,1870
1417382,1872,1868,1866
1417392,1841,1849,1843
1417402,1878,1873,1872
1417412,1885,1872,1872
1417422,1873,1867,1871
1417432,1873,1865,1869
1417442,1855,1854,1858
1417452,1866,1853,1859
1417462,1863,1861,1867
1417472,1879,1869,1870
1417482,1877,1870,1872
1417492,1841,1850,1847
1417502,1879,1868,1872
1417512,1899,1872,1879
1417522,1894,1872,1876
1417532,1893,1872,1872
1417542,1871,1854,1857
1417552,1898,1874,1885
1417562,1908,1872,1878
1417572,1904,1872,1877
1417582,1904,1872,1878
1417592,1904,1863,1872
1417602,1897,1865,1868
1417612,1879,1859,1865
1417622,1894,1872,1872
1417632,1886,1872,1872
1417642,1885,1879,1871
1417652,1871,1857,1851
1417662,1858,1861,1869
1417672,1871,1873,1871
1417682,1869,1867,1866
1417692,1869,1872,1873
1417702,1856,1865,1863
1417712,1872,1862,1858
1417722,1873,1869,1863
1417732,1865,1866,1867
1417742,1867,1871,1867
1417752,1851,1863,1857
1417762,1874,1872,1872
1417772,1861,1863,1869
1417782,1873,1866,1871
1417792,1877,1867,1872
1417802,1878,1863,1863
1417812,1872,1859,1856
1417822,1881,1872,1873
1417832,1887,1869,1872
1417842,1883,1871,1872
1417852,1869,1861,1864
1417862,1882,1873,1879
1417872,1890,1872,1870
1417882,1883,1871,1871
1417892,1875,1865,1872
1417902,1867,1856,1854
1417912,1870,1866,1863
1417922,1881,1872,1872
1417932,1879,1872,1871
1417942,1878,1867,1867
1417952,1853,1855,1859
1417962,1872,1873,1879
1417972,1880,1873,1867
1417982,1874,1871,1869
1417992,1875,1871,1870
1418002,1872,1865,1863
1418012,1882,1867,1869
1418022,1866,1862,1878
1418032,1877,1867,1872
1418042,1874,1870,1867
1418052,1861,1856,1867
1418062,1881,1872,1872
1418072,1863,1867,1872
1418082,1878,1872,1871
1418092,1875,1866,1870
1418102,1840,1851,1840
1418112,1872,1866,1867
1418122,1878,1868,1869
1418132,1879,1870,1871
1418142,1875,1867,1872
1418152,1872,1855,1858
1418162,1872,1854,1857
1418172,1871,1862,1866
1418182,1902,1872,1879
1418192,1894,1874,1880
1418202,1867,1855,1858
1418212,1902,1874,1887
1418222,1907,1872,1874
1418232,1910,1878,1884
1418242,1908,1873,1877
1418252,1891,1869,1877
1418262,1888,1859,1857
1418272,1893,1888,1883
1418282,1906,1875,1886
1418292,1899,1872,1872
1418302,1885,1857,1866
1418312,1878,1847,1857
1418322,1873,1871,1870
1418332,1891,1872,1873
1418342,1876,1870,1868
1418352,1869,1853,1845
1418362,1867,1866,1863
1418372,1870,1861,1856
1418382,1877,1872,1872
1418392,1872,1870,1872
1418402,1862,1863,1850
1418412,1845,1856,1842
1418422,1871,1869,1872
1418432,1879,1869,1873
1418442,1872,1870,1872
1418452,1872,1867,1858
1418462,1872,1872,1872
1418472,1872,1863,1859
1418482,1882,1871,1875
1418492,1883,1871,1872
1418502,1876,1867,1871
1418512,1865,1861,1859
1418522,1891,1879,1875
1418532,1879,1876,1874
1418542,1883,1872,1872
1418552,1878,1863,1866
1418562,1869,1862,1869
1418572,1887,1870,1873
1418582,1881,1875,1885
1418592,1874,1867,1870
1418602,1872,1866,1866
1418612,1863,1858,1872
1418622,1873,1858,1860
1418632,1899,1867,1871
1418642,1872,1867,1870
1418652,1871,1863,1866
1418662,1861,1862,1863
1418672,1879,1867,1870
1418682,1893,1886,1872
1418692,1873,1872,1863
1418702,1869,1863,1867
1418712,1855,1868,1872
1418722,1858,1856,1856
1418732,1877,1874,1881
1418742,1876,1867,1867
1418752,1871,1869,1863
1418762,1874,1849,1853
1418772,1873,1863,1867
1418782,1883,1878,1877
1418792,1874,1870,1872
1418802,1877,1870,1871
1418812,1883,1851,1851
1418822,1872,1868,1872
1418832,1875,1872,1879
1418842,1893,1872,1873
1418852,1895,1873,1874
1418862,1878,1866,1871
1418872,1883,1862,1866
1418882,1904,1872,1883
1418892,1907,1872,1881
1418902,1904,1873,1873
1418912,1876,1865,1866
1418922,1897,1870,1874
1418932,1885,1870,1869
1418942,1887,1869,1872
1418952,1886,1863,1871
1418962,1849,1846,1854
1418972,1886,1863,1866
1418982,1866,1861,1862
1418992,1872,1869,1866
1419002,1870,1868,1868
1419012,1841,1850,1846
1419022,1851,1854,1847
1419032,1857,1865,1869
1419042,1871,1867,1859
1419052,1866,1861,1859
1419062,1878,1845,1840
1419072,1853,1846,1851
1419082,1863,1863,1873
1419092,1871,1867,1863
1419102,1871,1863,1867
1419112,1875,1872,1872
1419122,1858,1862,1859
1419132,1878,1869,1872
1419142,1878,1869,1867
1419152,1879,1868,1869
1419162,1879,1870,1872
1419172,1866,1856,1858
1419182,1890,1872,1877
1419192,1887,1870,1872
1419202,1881,1870,1872
1419212,1883,1870,1883
1419222,1856,1855,1855
1419232,1872,1870,1867
1419242,1886,1878,1881
1419252,1883,1867,1872
1419262,1878,1871,1872
1419272,1870,1860,1862
1419282,1881,1872,1875
1419292,1886,1869,1853
1419302,1872,1867,1870
1419312,1876,1868,1875
1419322,1858,1849,1850
1419332,1862,1859,1860
1419342,1879,1872,1872
1419352,1874,1865,1869
1419362,1875,1868,1866
1419372,1863,1853,1856
1419382,1857,1860,1859
1419392,1886,1881,1881
1419402,1872,1870,1866
1419412,1872,1871,1869
1419422,1849,1849,1854
1419432,1872,1866,1871
1419442,1885,1869,1858
1419452,1881,1872,1870
1419462,1886,1870,1874
1419472,1856,1851,1852
1419482,1894,1872,1875
1419492,1890,1867,1889
1419502,1905,1875,1883
1419512,1904,1872,1879
1419522,1871,1866,1872
1419532,1907,1885,1890
1419542,1895,1871,1878
1419552,1906,1876,1885
1419562,1901,1877,1878
1419572,1866,1856,1862
1419582,1901,1873,1878
1419592,1874,1860,1871
1419602,1896,1872,1874
1419612,1884,1871,1873
1419622,1851,1857,1860
1419632,1877,1866,1863
1419642,1862,1867,1871
1419652,1879,1873,1872
1419662,1871,1860,1871
1419672,1856,1862,1865
1419682,1841,1858,1863
1419692,1872,1867,1872
1419702,1882,1872,1872
1419712,1871,1867,1872
1419722,1856,1851,1855
1419732,1853,1866,1866
1419742,1886,1872,1878
1419752,1885,1870,1873
1419762,1879,1872,1872
1419772,1872,1855,1854
1419782,1872,1866,1866
1419792,1889,1866,1865
1419802,1895,1874,1873
1419812,1881,1872,1870
1419822,1872,1861,1855
1419832,1863,1856,1855
1419842,1890,1874,1878
1419852,1894,1872,1873
1419862,1879,1872,1871
1419872,1872,1865,1863
1419882,1854,1855,1849
1419892,1883,1872,1874
1419902,1897,1872,1873
1419912,1874,1867,1869
1419922,1869,1863,1860
1419932,1849,1854,1852
1419942,1881,1871,1872
1419952,1882,1882,1873
1419962,1872,1868,1868
1419972,1869,1858,1869
1419982,1842,1849,1851
1419992,1873,1872,1872
1420002,1877,1871,1877
1420012,1875,1866,1867
1420022,1872,1863,1870
1420032,1869,1860,1862
1420042,1872,1860,1859
1420052,1878,1872,1867
1420062,1884,1872,1869
1420072,1882,1863,1872
1420082,1854,1850,1856
1420092,1890,1876,1878
1420102,1904,1886,1894
1420112,1897,1871,1874
1420122,1899,1872,1877
1420132,1871,1860,1863
1420142,1909,1875,1889
1420152,1904,1877,1879
1420162,1907,1875,1879
1420172,1904,1873,1877
1420182,1890,1871,1879
1420192,1883,1866,1870
1420202,1893,1873,1889
1420212,1893,1872,1878
1420222,1886,1871,1874
1420232,1871,1863,1873
1420242,1866,1862,1865
1420252,1874,1872,1878
1420262,1873,1869,1871
1420272,1872,1867,1865
1420282,1851,1840,1840
1420292,1871,1872,1868
1420302,1877,1869,1874
1420312,1871,1866,1870
1420322,1872,1863,1870
1420332,1846,1842,1838
1420342,1863,1865,1863
1420352,1879,1878,1879
1420362,1872,1872,1871
1420372,1876,1869,1871
1420382,1879,1854,1847
1420392,1865,1859,1869
1420402,1882,1873,1871
1420412,1886,1872,1872
1420422,1878,1871,1871
1420432,1863,1865,1878
1420442,1866,1856,1857
1420452,1877,1870,1872
1420462,1886,1867,1872
1420472,1882,1869,1868
1420482,1867,1847,1847
1420492,1877,1869,1873
1420502,1885,1872,1875
1420512,1881,1872,1871
1420522,1872,1870,1872
1420532,1879,1866,1840
1420542,1864,1862,1863
1420552,1876,1872,1874
1420562,1879,1872,1872
1420572,1874,1870,1869
1420582,1879,1874,1867
1420592,1871,1872,1872
1420602,1885,1872,1873
1420612,1878,1867,1871
1420622,1872,1869,1870
1420632,1881,1870,1877
1420642,1859,1855,1853
1420652,1872,1870,1867
1420662,1872,1872,1873
1420672,1879,1866,1872
1420682,1885,1872,1873
1420692,1877,1868,1872
1420702,1893,1875,1885
1420712,1902,1878,1889
1420722,1904,1873,1884
1420732,1905,1875,1887
1420742,1893,1872,1883
1420752,1922,1872,1886
1420762,1919,1877,1895
1420772,1904,1883,1889
1420782,1906,1873,1889
1420792,1889,1869,1878
1420802,1909,1870,1873
1420812,1887,1887,1878
1420822,1894,1872,1876
1420832,1886,1873,1874
1420842,1850,1859,1859
1420852,1879,1874,1878
1420862,1885,1886,1879
1420872,1874,1872,1870
1420882,1872,1866,1870
1420892,1845,1853,1859
1420902,1872,1871,1877
1420912,1867,1877,1858
1420922,1874,1870,1868
1420932,1871,1861,1872
1420942,1839,1850,1858
1420952,1873,1872,1872
1420962,1871,1863,1873
1420972,1883,1872,1870
1420982,1877,1872,1871
1420992,1854,1851,1847
1421002,1881,1872,1874
1421012,1885,1871,1870
1421022,1888,1872,1876
1421032,1887,1872,1876
1421042,1865,1869,1873
1421052,1897,1866,1870
1421062,1871,1862,1863
1421072,1892,1865,1874
1421082,1886,1872,1872
1421092,1858,1847,1853
1421102,1872,1869,1872
1421112,1882,1874,1881
1421122,1884,1873,1877
1421132,1872,1872,1871
1421142,1840,1853,1854
1421152,1875,1869,1874
1421162,1863,1871,1869
1421172,1876,1870,1872
1421182,1874,1868,1869
1421192,1838,1857,1858
1421202,1872,1861,1863
1421212,1870,1866,1870
1421222,1882,1869,1867
1421232,1872,1867,1871
1421242,1850,1851,1858
1421252,1874,1873,1872
1421262,1872,1867,1862
1421272,1889,1875,1874
1421282,1879,1870,1875
1421292,1879,1859,1871
1421302,1867,1856,1862
1421312,1894,1872,1884
1421322,1909,1877,1891
1421332,1903,1872,1887
1421342,1902,1874,1874
1421352,1894,1872,1887
1421362,1907,1883,1895
1421372,1909,1887,1895
1421382,1904,1877,1886
1421392,1895,1872,1879
1421402,1899,1882,1890
1421412,1884,1862,1870
1421422,1895,1884,1888
1421432,1885,1872,1870
1421442,1874,1868,1869
1421452,1861,1863,1867
1421462,1886,1871,1872
1421472,1892,1878,1897
1421482,1869,1868,1863
1421492,1865,1859,1858
1421502,1855,1862,1869
1421512,1869,1859,1859
1421522,1872,1860,1865
1421532,1870,1871,1863
1421542,1864,1863,1863
1421552,1873,1854,1850
1421562,1862,1866,1855
1421572,1894,1872,1872
1421582,1872,1863,1867
1421592,1871,1866,1872
1421602,1858,1862,1863
1421612,1887,1869,1871
1421622,1878,1872,1872
1421632,1879,1865,1870
1421642,1877,1872,1869
1421652,1856,1842,1842
1421662,1871,1861,1870
1421672,1875,1873,1871
1421682,1875,1872,1869
1421692,1874,1866,1865
1421702,1863,1862,1867
1421712,1858,1857,1856
1421722,1865,1863,1872
1421732,1873,1869,1867
1421742,1871,1866,1867
1421752,1840,1852,1859
1421762,1879,1866,1870
1421772,1856,1861,1862
1421782,1872,1862,1866
1421792,1866,1869,1861
1421802,1835,1853,1850
1421812,1875,1868,1866
1421822,1856,1855,1858
1421832,1868,1866,1862
1421842,1869,1870,1870
1421852,1839,1834,1840
1421862,1866,1869,1870
1421872,1872,1863,1869
1421882,1869,1867,1863
1421892,1872,1867,1867
1421902,1840,1838,1840
1421912,1869,1858,1870
1421922,1888,1873,1873
1421932,1885,1868,1871
1421942,1889,1871,1872
1421952,1883,1851,1851
1421962,1870,1865,1867
1421972,1894,1873,1882
1421982,1902,1877,1875
1421992,1904,1874,1881
1422002,1904,1874,1866
1422012,1892,1856,1861
1422022,1897,1869,1874
1422032,1905,1872,1874
1422042,1893,1875,1874
1422052,1895,1874,1873
1422062,1892,1865,1872
1422072,1869,1867,1867
1422082,1878,1872,1874
1422092,1882,1872,1872
1422102,1877,1872,1872
1422112,1874,1872,1870
1422122,1871,1867,1867
1422132,1895,1871,1871
1422142,1871,1867,1870
1422152,1877,1872,1870
1422162,1859,1855,1853
1422172,1866,1870,1867
1422182,1876,1881,1883
1422192,1874,1870,1869
1422202,1874,1872,1872
1422212,1868,1867,1871
1422222,1861,1863,1861
1422232,1882,1871,1882
1422242,1877,1869,1871
1422252,1874,1867,1873
1422262,1857,1853,1854
1422272,1874,1870,1872
1422282,1886,1878,1872
1422292,1887,1872,1871
1422302,1879,1872,1874
1422312,1858,1852,1849
1422322,1862,1865,1867
1422332,1895,1881,1873
1422342,1885,1866,1869
1422352,1877,1870,1870
1422362,1873,1867,1872
1422372,1885,1859,1859
1422382,1875,1874,1881
1422392,1879,1872,1871
1422402,1875,1871,1870
1422412,1840,1845,1850
1422422,1873,1872,1867
1422432,1881,1861,1872
1422442,1878,1867,1869
1422452,1873,1866,1872
1422462,1857,1845,1850
1422472,1873,1866,1872
1422482,1897,1874,1886
1422492,1894,1872,1882
1422502,1901,1872,1879
1422512,1874,1872,1872
1422522,1904,1882,1889
1422532,1909,1871,1883
1422542,1913,1876,1889
1422552,1908,1877,1888
1422562,1889,1872,1879
1422572,1902,1868,1872
1422582,1895,1874,1882
1422592,1913,1883,1881
1422602,1902,1872,1881
1422612,1860,1858,1863
1422622,1887,1879,1887
1422632,1870,1862,1862
1422642,1889,1872,1876
1422652,1883,1871,1871
1422662,1856,1849,1850
1422672,1853,1866,1861
1422682,1872,1872,1872
1422692,1875,1872,1872
1422702,1872,1867,1869
1422712,1845,1858,1861
1422722,1861,1856,1849
1422732,1862,1859,1862
1422742,1878,1872,1869
1422752,1877,1870,1868
1422762,1872,1852,1855
1422772,1854,1856,1862
1422782,1881,1872,1881
1422792,1889,1875,1873
1422802,1885,1870,1874
1422812,1875,1866,1869
1422822,1873,1867,1870
1422832,1888,1864,1871
1422842,1900,1872,1875
1422852,1884,1869,1873
1422862,1874,1863,1870
1422872,1872,1866,1866
1422882,1886,1872,1876
1422892,1907,1882,1875
1422902,1877,1869,1870
1422912,1872,1866,1869
1422922,1871,1861,1865
1422932,1881,1859,1858
1422942,1889,1872,1882
1422952,1872,1867,1870
1422962,1870,1863,1866
1422972,1853,1845,1846
1422982,1871,1871,1870
1422992,1878,1883,1886
1423002,1876,1869,1870
1423012,1872,1862,1869
1423022,1872,1870,1878
1423032,1879,1863,1866
1423042,1922,1872,1876
1423052,1893,1873,1882
1423062,1892,1871,1879
1423072,1899,1873,1889
1423082,1893,1874,1877
1423092,1918,1896,1899
1423102,1910,1874,1891
1423112,1910,1873,1889
1423122,1877,1861,1872
1423132,1911,1878,1899
1423142,1919,1879,1909
1423152,1902,1877,1882
1423162,1894,1873,1883
1423172,1873,1869,1872
1423182,1889,1869,1872
1423192,1872,1866,1874
1423202,1876,1872,1872
1423212,1872,1869,1872
1423222,1869,1865,1860
1423232,1859,1857,1855
1423242,1864,1862,1872
1423252,1866,1867,1865
1423262,1863,1865,1863
1423272,1840,1841,1839
1423282,1862,1867,1864
1423292,1879,1872,1874
1423302,1872,1863,1869
1423312,1872,1870,1869
1423322,1837,1842,1840
1423332,1872,1869,1872
1423342,1879,1872,1872
1423352,1879,1870,1872
1423362,1885,1870,1871
1423372,1855,1845,1847
1423382,1872,1865,1873
1423392,1887,1872,1877
1423402,1879,1871,1872
1423412,1876,1871,1871
1423422,1889,1847,1844
1423432,1859,1855,1857
1423442,1865,1859,1867
1423452,1877,1869,1870
1423462,1875,1871,1865
1423472,1879,1867,1856
1423482,1871,1854,1855
1423492,1861,1855,1856
1423502,1872,1870,1868
1423512,1875,1866,1862
1423522,1875,1867,1866
1423532,1869,1856,1850
1423542,1857,1857,1856
1423552,1879,1868,1867
1423562,1872,1865,1867
1423572,1876,1867,1869
1423582,1852,1855,1857
1423592,1872,1866,1869
1423602,1883,1872,1879
1423612,1890,1870,1875
1423622,1897,1872,1875
1423632,1875,1869,1872
1423642,1904,1874,1889
1423652,1913,1891,1901
1423662,1915,1877,1894
1423672,1917,1878,1895
1423682,1892,1872,1881
1423692,1918,1883,1904
1423702,1918,1888,1907
1423712,1906,1882,1889
1423722,1904,1872,1889
1423732,1887,1872,1885
1423742,1897,1875,1888
1423752,1909,1874,1875
1423762,1888,1874,1874
1423772,1882,1872,1872
1423782,1853,1851,1851
1423792,1859,1858,1856
1423802,1875,1872,1876
1423812,1869,1870,1866
1423822,1867,1865,1869
1423832,1851,1859,1862
1423842,1872,1867,1872
1423852,1863,1869,1871
1423862,1872,1861,1867
1423872,1873,1864,1867
1423882,1853,1853,1845
1423892,1858,1857,1857
1423902,1873,1868,1873
1423912,1887,1872,1872
1423922,1878,1872,1872
1423932,1855,1850,1851
1423942,1871,1861,1871
1423952,1884,1873,1874
1423962,1890,1872,1877
1423972,1885,1872,1873
1423982,1872,1869,1873
1423992,1879,1873,1878
1424002,1879,1859,1861
1424012,1891,1872,1878
1424022,1878,1871,1872
1424032,1871,1862,1866
1424042,1870,1851,1859
1424052,1858,1862,1856
1424062,1886,1870,1870
1424072,1872,1869,1861
1424082,1859,1855,1853
1424092,1851,1847,1847
1424102,1862,1862,1860
1424112,1881,1872,1869
1424122,1872,1872,1860
1424132,1860,1857,1861
1424142,1875,1857,1855
1424152,1861,1862,1861
1424162,1885,1871,1873
1424172,1874,1870,1870
1424182,1841,1856,1867
1424192,1889,1862,1866
1424202,1874,1866,1872
1424212,1904,1881,1888
1424222,1902,1872,1894
1424232,1903,1872,1882
1424242,1890,1873,1893
1424252,1917,1880,1905
1424262,1927,1889,1910
1424272,1923,1882,1905
1424282,1911,1883,1898
1424292,1911,1881,1905
1424302,1918,1872,1895
1424312,1915,1886,1902
1424322,1904,1881,1897
1424332,1898,1875,1882
1424342,1872,1872,1880
1424352,1894,1879,1885
1424362,1883,1875,1887
1424372,1882,1871,1872
1424382,1869,1863,1869
1424392,1866,1872,1872
1424402,1856,1860,1854
1424412,1872,1870,1875
1424422,1866,1865,1859
1424432,1864,1862,1861
1424442,1855,1861,1856
1424452,1866,1862,1856
1424462,1871,1872,1869
1424472,1872,1866,1863
1424482,1869,1860,1857
1424492,1841,1860,1861
1424502,1878,1872,1871
1424512,1906,1872,1862
1424522,1879,1866,1871
1424532,1878,1866,1866
1424542,1858,1851,1842
1424552,1870,1865,1857
1424562,1885,1879,1877
1424572,1884,1872,1871
1424582,1875,1870,1859
1424592,1839,1853,1846
1424602,1877,1870,1872
1424612,1879,1878,1875
1424622,1878,1867,1867
1424632,1871,1866,1860
1424642,1856,1867,1866
1424652,1857,1853,1850
1424662,1867,1863,1865
1424672,1871,1871,1867
1424682,1872,1861,1859
1424692,1847,1855,1856
1424702,1858,1859,1856
1424712,1865,1866,1870
1424722,1869,1865,1863
1424732,1862,1862,1861
1424742,1837,1846,1843
1424752,1873,1872,1872
1424762,1855,1856,1855
1424772,1872,1867,1866
1424782,1869,1859,1867
1424792,1838,1846,1840
1424802,1872,1869,1872
1424812,1872,1861,1859
1424822,1873,1861,1866
1424832,1873,1862,1861
1424842,1862,1868,1872
1424852,1862,1867,1863
1424862,1889,1877,1880
1424872,1898,1872,1885
1424882,1899,1875,1884
1424892,1889,1859,1870
1424902,1916,1886,1899
1424912,1910,1872,1887
1424922,1919,1886,1899
1424932,1920,1881,1899
1424942,1923,1883,1879
1424952,1909,1879,1894
1424962,1919,1881,1901
1424972,1909,1881,1892
1424982,1904,1877,1890
1424992,1901,1880,1886
1425002,1881,1873,1882
1425012,1890,1872,1872
1425022,1882,1873,1878
1425032,1877,1872,1870
1425042,1872,1866,1871
1425052,1850,1854,1856
1425062,1859,1872,1867
1425072,1875,1872,1865
1425082,1869,1863,1867
1425092,1870,1867,1870
1425102,1850,1861,1866
1425112,1872,1871,1869
1425122,1876,1870,1872
1425132,1873,1868,1866
1425142,1872,1867,1870
1425152,1856,1857,1861
1425162,1873,1867,1874
1425172,1891,1867,1881
1425182,1888,1870,1873
1425192,1877,1872,1872
1425202,1863,1843,1866
1425212,1882,1874,1879
1425222,1886,1891,1874
1425232,1886,1871,1873
1425242,1883,1869,1872
1425252,1869,1863,1865
1425262,1882,1863,1856
1425272,1881,1875,1873
1425282,1875,1867,1869
1425292,1875,1867,1867
1425302,1854,1850,1845
1425312,1853,1860,1857
1425322,1870,1873,1874
1425332,1874,1867,1865
1425342,1873,1871,1862
1425352,1841,1840,1853
1425362,1870,1874,1867
1425372,1867,1857,1861
1425382,1872,1863,1866
1425392,1873,1868,1866
1425402,1863,1859,1863
1425412,1877,1869,1872
1425422,1859,1858,1856
1425432,1874,1865,1871
1425442,1872,1871,1869
1425452,1849,1846,1849
1425462,1859,1861,1862
1425472,1874,1872,1870
1425482,1872,1871,1872
1425492,1872,1867,1869
1425502,1839,1846,1843
1425512,1872,1869,1868
1425522,1871,1860,1859
1425532,1874,1867,1869
1425542,1875,1869,1867
1425552,1863,1853,1851
1425562,1850,1861,1860
1425572,1873,1870,1872
1425582,1889,1872,1877
1425592,1891,1871,1874
1425602,1863,1860,1870
1425612,1902,1874,1887
1425622,1895,1871,1873
1425632,1919,1886,1897
1425642,1914,1884,1891
1425652,1907,1866,1882
1425662,1899,1870,1882
1425672,1917,1886,1904
1425682,1927,1890,1907
1425692,1921,1883,1899
1425702,1905,1878,1874
1425712,1914,1871,1872
1425722,1891,1876,1895
1425732,1905,1883,1886
1425742,1894,1877,1879
1425752,1874,1869,1875
1425762,1872,1868,1872
1425772,1868,1859,1859
1425782,1863,1872,1872
1425792,1873,1872,1866
1425802,1863,1870,1857
1425812,1855,1863,1860
1425822,1870,1867,1870
1425832,1867,1863,1873
1425842,1867,1866,1861
1425852,1863,1861,1861
1425862,1872,1863,1870
1425872,1865,1859,1857
1425882,1872,1867,1867
1425892,1872,1866,1872
1425902,1871,1865,1867
1425912,1887,1856,1853
1425922,1866,1858,1859
1425932,1872,1873,1873
1425942,1882,1872,1871
1425952,1873,1863,1871
1425962,1851,1851,1853
1425972,1877,1869,1882
1425982,1905,1881,1884
1425992,1878,1871,1870
1426002,1872,1866,1870
1426012,1857,1859,1861
1426022,1884,1871,1867
1426032,1872,1869,1882
1426042,1875,1865,1864
1426052,1872,1862,1864
1426062,1857,1872,1865
1426072,1867,1853,1856
1426082,1862,1859,1871
1426092,1869,1863,1865
1426102,1867,1861,1858
1426112,1831,1840,1831
1426122,1856,1866,1859
1426132,1866,1867,1866
1426142,1867,1863,1858
1426152,1867,1865,1865
1426162,1838,1845,1837
1426172,1869,1870,1867
1426182,1874,1869,1872
1426192,1870,1865,1870
1426202,1870,1865,1862
1426212,1853,1855,1854
1426222,1879,1866,1863
1426232,1862,1859,1855
1426242,1868,1869,1862
1426252,1871,1866,1869
1426262,1843,1858,1859
1426272,1861,1851,1853
1426282,1865,1870,1866
1426292,1872,1863,1862
1426302,1872,1869,1867
1426312,1851,1845,1840
1426322,1872,1867,1868
1426332,1893,1874,1879
1426342,1889,1871,1879
1426352,1898,1874,1879
1426362,1905,1865,1869
1426372,1904,1872,1879
1426382,1903,1874,1885
1426392,1914,1882,1894
1426402,1917,1879,1895
1426412,1921,1886,1901
1426422,1899,1872,1874
1426432,1904,1875,1894
1426442,1914,1886,1888
1426452,1901,1877,1888
1426462,1899,1878,1887
1426472,1894,1868,1874
1426482,1872,1871,1871
1426492,1890,1872,1874
1426502,1878,1872,1872
1426512,1873,1870,1867
1426522,1856,1863,1860
1426532,1870,1869,1870
1426542,1853,1851,1866
1426552,1859,1866,1860
1426562,1866,1862,1863
1426572,1861,1858,1861
1426582,1842,1856,1853
1426592,1872,1867,1856
1426602,1871,1869,1862
1426612,1871,1870,1863
1426622,1845,1853,1850
1426632,1873,1869,1867
1426642,1915,1872,1866
1426652,1884,1871,1872
1426662,1877,1872,1872
1426672,1870,1866,1870
1426682,1879,1873,1873
1426692,1881,1863,1885
1426702,1877,1873,1872
1426712,1873,1867,1872
1426722,1874,1871,1872
1426732,1888,1870,1871
1426742,1873,1872,1870
1426752,1877,1867,1867
1426762,1874,1870,1870
1426772,1855,1859,1862
1426782,1872,1869,1867
1426792,1873,1861,1868
1426802,1875,1867,1868
1426812,1872,1868,1866
1426822,1865,1861,1860
1426832,1873,1861,1863
1426842,1856,1858,1859
1426852,1872,1869,1867
1426862,1871,1862,1862
1426872,1862,1855,1855
1426882,1857,1856,1853
1426892,1854,1859,1862
1426902,1875,1867,1866
1426912,1872,1863,1867
1426922,1846,1845,1840
1426932,1851,1857,1857
1426942,1872,1872,1872
1426952,1879,1869,1867
1426962,1874,1866,1867
1426972,1854,1866,1869
1426982,1882,1872,1873
1426992,1880,1863,1863
1427002,1898,1873,1883
1427012,1902,1875,1878
1427022,1879,1872,1879
1427032,1905,1878,1888
1427042,1899,1873,1874
1427052,1922,1886,1899
1427062,1911,1881,1893
1427072,1903,1856,1872
1427082,1887,1872,1882
1427092,1906,1886,1893
1427102,1906,1881,1889
1427112,1897,1874,1881
1427122,1887,1869,1853
1427132,1877,1873,1872
1427142,1868,1866,1862
1427152,1890,1875,1876
1427162,1875,1871,1871
1427172,1866,1867,1855
1427182,1860,1861,1861
1427192,1856,1852,1853
1427202,1865,1870,1863
1427212,1863,1862,1856
1427222,1857,1859,1856
1427232,1844,1855,1856
1427242,1871,1869,1867
1427252,1891,1877,1872
1427262,1872,1866,1869
1427272,1872,1861,1857
1427282,1845,1846,1851
1427292,1876,1872,1873
1427302,1897,1887,1886
1427312,1884,1870,1872
1427322,1876,1870,1870
1427332,1883,1856,1856
1427342,1868,1863,1858
1427352,1884,1872,1869
1427362,1878,1872,1872
1427372,1871,1863,1862
1427382,1873,1857,1857
1427392,1868,1866,1859
1427402,1891,1872,1870
1427412,1875,1869,1862
1427422,1871,1866,1863
1427432,1872,1849,1843
1427442,1857,1860,1857
1427452,1873,1863,1856
1427462,1871,1869,1860
1427472,1865,1860,1857
1427482,1850,1845,1851
1427492,1872,1862,1865
1427502,1861,1871,1867
1427512,1869,1865,1867
1427522,1869,1861,1862
1427532,1830,1847,1848
1427542,1878,1870,1870
1427552,1858,1856,1861
1427562,1870,1861,1863
1427572,1870,1864,1861
1427582,1839,1836,1835
1427592,1862,1869,1862
1427602,1871,1870,1865
1427612,1872,1861,1859
1427622,1869,1857,1862
1427632,1840,1850,1846
1427642,1875,1872,1872
1427652,1892,1875,1885
1427662,1885,1869,1877
1427672,1888,1872,1872
1427682,1879,1867,1883
1427692,1882,1871,1874
1427702,1904,1876,1889
1427712,1910,1877,1889
1427722,1908,1876,1889
1427732,1877,1866,1872
1427742,1914,1882,1893
1427752,1909,1874,1881
1427762,1904,1878,1887
1427772,1899,1876,1884
1427782,1894,1872,1875
1427792,1871,1866,1869
1427802,1879,1873,1874
1427812,1883,1872,1872
1427822,1875,1870,1868
1427832,1874,1854,1840
1427842,1846,1851,1845
1427852,1859,1869,1862
1427862,1871,1868,1865
1427872,1866,1858,1856
1427882,1863,1861,1862
1427892,1857,1863,1862
1427902,1871,1866,1863
1427912,1872,1863,1857
1427922,1864,1859,1861
1427932,1872,1867,1867
1427942,1840,1850,1853
1427952,1872,1870,1866
1427962,1895,1872,1867
1427972,1872,1871,1870
1427982,1878,1872,1873
1427992,1872,1872,1872
1428002,1889,1866,1868
1428012,1882,1857,1867
1428022,1883,1872,1871
1428032,1883,1872,1872
1428042,1879,1862,1867
1428052,1889,1868,1870
1428062,1900,1869,1879
1428072,1877,1871,1870
1428082,1873,1862,1870
1428092,1850,1853,1849
1428102,1858,1859,1856
1428112,1872,1874,1863
1428122,1873,1869,1863
1428132,1872,1868,1863
1428142,1856,1856,1857
1428152,1871,1871,1865
1428162,1866,1862,1875
1428172,1871,1872,1866
1428182,1872,1871,1868
1428192,1859,1855,1845
1428202,1857,1856,1851
1428212,1867,1866,1863
1428222,1873,1871,1868
1428232,1873,1866,1865
1428242,1835,1843,1840
1428252,1871,1867,1869
1428262,1879,1865,1867
1428272,1875,1870,1869
1428282,1874,1865,1870
1428292,1867,1856,1854
1428302,1863,1853,1856
1428312,1870,1867,1866
1428322,1887,1869,1874
1428332,1884,1871,1873
1428342,1857,1856,1853
1428352,1898,1877,1885
1428362,1883,1862,1866
1428372,1904,1879,1887
1428382,1905,1878,1888
1428392,1903,1870,1878
1428402,1907,1872,1885
1428412,1905,1887,1894
1428422,1914,1885,1898
1428432,1908,1879,1891
1428442,1880,1859,1866
1428452,1877,1871,1875
1428462,1901,1882,1882
1428472,1899,1875,1884
1428482,1887,1872,1875
1428492,1866,1866,1869
1428502,1871,1857,1849
1428512,1865,1865,1866
1428522,1875,1871,1869
1428532,1867,1867,1867
1428542,1855,1843,1840
1428552,1861,1867,1865
1428562,1855,1851,1845
1428572,1873,1866,1867
1428582,1866,1865,1861
1428592,1859,1858,1851
1428602,1845,1842,1845
1428612,1861,1863,1862
1428622,1879,1869,1875
1428632,1872,1867,1870
1428642,1872,1862,1861
1428652,1862,1863,1869
1428662,1891,1869,1872
1428672,1901,1878,1877
1428682,1886,1870,1873
1428692,1876,1866,1870
1428702,1872,1879,1866
1428712,1887,1868,1876
1428722,1904,1885,1875
1428732,1875,1872,1872
1428742,1872,1880,1863
1428752,1851,1852,1854
1428762,1879,1872,1871
1428772,1895,1878,1895
1428782,1872,1870,1871
1428792,1867,1866,1861
1428802,1867,1870,1871
1428812,1855,1862,1858
1428822,1867,1866,1871
1428832,1871,1871,1866
1428842,1867,1862,1863
1428852,1840,1851,1847
1428862,1867,1872,1867
1428872,1872,1859,1865
1428882,1872,1870,1865
1428892,1867,1866,1863
1428902,1837,1854,1857
1428912,1875,1872,1872
1428922,1872,1870,1883
1428932,1872,1866,1866
1428942,1870,1863,1863
1428952,1838,1846,1846
1428962,1871,1866,1869
1428972,1890,1863,1887
1428982,1872,1866,1866
1428992,1872,1866,1869
1429002,1870,1843,1845
1429012,1867,1861,1863
1429022,1886,1872,1879
1429032,1886,1867,1872
1429042,1890,1872,1874
1429052,1869,1863,1870
1429062,1904,1876,1891
1429072,1893,1874,1885
1429082,1909,1878,1888
1429092,1906,1881,1891
1429102,1880,1858,1861
1429112,1915,1883,1892
1429122,1918,1881,1897
1429132,1908,1874,1885
1429142,1904,1876,1881
1429152,1872,1851,1854
1429162,1887,1872,1877
1429172,1895,1877,1879
1429182,1884,1871,1873
1429192,1874,1868,1872
1429202,1842,1842,1840
1429212,1870,1865,1872
1429222,1872,1869,1872
1429232,1866,1862,1862
1429242,1865,1861,1860
1429252,1865,1851,1849
1429262,1861,1851,1846
1429272,1855,1861,1861
1429282,1865,1865,1861
1429292,1869,1862,1858
1429302,1872,1872,1854
1429312,1856,1854,1850
1429322,1872,1869,1870
1429332,1887,1872,1872
1429342,1874,1871,1871
1429352,1882,1873,1865
1429362,1869,1857,1856
1429372,1883,1872,1874
1429382,1889,1867,1867
1429392,1885,1871,1869
1429402,1897,1877,1881
1429412,1871,1867,1869
1429422,1883,1869,1872
1429432,1886,1876,1873
1429442,1875,1862,1868
1429452,1875,1872,1870
1429462,1868,1861,1867
1429472,1879,1872,1875
1429482,1876,1859,1862
1429492,1873,1867,1869
1429502,1874,1869,1871
1429512,1856,1847,1841
1429522,1859,1859,1859
1429532,1877,1869,1869
1429542,1873,1869,1863
1429552,1872,1866,1860
1429562,1855,1860,1852
1429572,1872,1866,1863
1429582,1891,1871,1863
1429592,1874,1866,1866
1429602,1872,1869,1869
1429612,1842,1851,1842
1429622,1868,1865,1865
1429632,1887,1871,1872
1429642,1872,1871,1865
1429652,1872,1865,1866
1429662,1867,1859,1859
1429672,1858,1856,1856
1429682,1868,1872,1879
1429692,1874,1866,1870
1429702,1873,1867,1870
1429712,1844,1852,1854
1429722,1878,1868,1871
1429732,1872,1856,1871
1429742,1885,1871,1875
1429752,1889,1872,1877
1429762,1875,1853,1856
1429772,1891,1874,1880
1429782,1910,1883,1895
1429792,1913,1882,1887
1429802,1914,1882,1895
1429812,1906,1873,1883
1429822,1904,1869,1881
1429832,1909,1883,1890
1429842,1915,1881,1891
1429852,1911,1883,1889
1429862,1872,1857,1863
1429872,1902,1884,1889
1429882,1891,1867,1869
1429892,1893,1874,1875
1429902,1886,1872,1872
1429912,1856,1847,1846
1429922,1861,1863,1867
1429932,1875,1863,1867
1429942,1872,1869,1863
1429952,1867,1861,1859
1429962,1840,1850,1847
1429972,1858,1863,1863
1429982,1853,1855,1851
1429992,1872,1866,1871
1430002,1871,1869,1860
1430012,1852,1854,1845
1430022,1846,1858,1849
1430032,1868,1865,1863
1430042,1884,1872,1872
1430052,1873,1872,1871
1430062,1876,1866,1857
1430072,1871,1862,1869
1430082,1890,1872,1875
1430092,1889,1871,1872
1430102,1885,1867,1872
1430112,1872,1862,1863
1430122,1863,1853,1853
1430132,1876,1869,1870
1430142,1885,1875,1875
1430152,1878,1870,1874
1430162,1872,1863,1867
1430172,1872,1857,1857
1430182,1861,1866,1867
1430192,1877,1867,1869
1430202,1870,1869,1872
1430212,1869,1861,1858
1430222,1866,1859,1862
1430232,1859,1851,1855
1430242,1877,1867,1879
1430252,1872,1866,1870
1430262,1867,1866,1859
1430272,1857,1858,1862
1430282,1872,1867,1866
1430292,1876,1862,1866
1430302,1872,1865,1865
1430312,1865,1860,1862
1430322,1871,1859,1863
1430332,1865,1859,1862
1430342,1893,1866,1869
1430352,1872,1870,1871
1430362,1871,1866,1863
1430372,1847,1857,1856
1430382,1875,1867,1862
1430392,1872,1872,1868
1430402,1872,1867,1869
1430412,1872,1862,1867
1430422,1838,1851,1849
1430432,1878,1869,1872
1430442,1874,1869,1890
1430452,1874,1859,1867
1430462,1872,1861,1869
1430472,1873,1846,1851
1430482,1866,1862,1862
1430492,1883,1871,1872
1430502,1883,1872,1872
1430512,1879,1872,1872
1430522,1877,1863,1873
1430532,1895,1872,1873
1430542,1895,1873,1885
1430552,1906,1874,1889
1430562,1913,1878,1889
1430572,1882,1854,1866
1430582,1907,1875,1893
1430592,1917,1877,1892
1430602,1909,1874,1888
1430612,1905,1874,1889
1430622,1871,1857,1863
1430632,1894,1881,1893
1430642,1899,1872,1881
1430652,1891,1871,1878
1430662,1885,1872,1873
1430672,1853,1853,1858
1430682,1878,1866,1871
1430692,1867,1856,1850
1430702,1868,1867,1865
1430712,1869,1867,1857
1430722,1840,1840,1841
1430732,1859,1861,1859
1430742,1872,1863,1863
1430752,1867,1866,1861
1430762,1862,1866,1859
1430772,1872,1868,1857
1430782,1857,1862,1859
1430792,1877,1875,1873
1430802,1874,1865,1865
1430812,1877,1865,1870
1430822,1879,1881,1863
1430832,1872,1857,1858
1430842,1872,1871,1866
1430852,1882,1868,1869
1430862,1882,1871,1876
1430872,1890,1872,1877
1430882,1874,1871,1873
1430892,1886,1872,1872
1430902,1875,1869,1872
1430912,1882,1869,1869
1430922,1882,1872,1872
1430932,1866,1857,1853
1430942,1867,1871,1867
1430952,1887,1872,1869
1430962,1872,1868,1868
1430972,1875,1867,1867
1430982,1872,1867,1867
1430992,1859,1858,1855
1431002,1869,1867,1871
1431012,1872,1867,1861
1431022,1872,1866,1863
1431032,1859,1861,1863
1431042,1872,1867,1872
1431052,1895,1863,1870
1431062,1872,1865,1868
1431072,1873,1868,1870
1431082,1846,1853,1843
1431092,1859,1866,1858
1431102,1871,1877,1871
1431112,1874,1866,1865
1431122,1872,1867,1869
1431132,1850,1862,1862
1431142,1871,1867,1872
1431152,1875,1847,1869
1431162,1875,1870,1869
1431172,1872,1869,1869
1431182,1866,1863,1869
1431192,1884,1859,1857
1431202,1870,1871,1877
1431212,1877,1872,1871
1431222,1875,1870,1869
1431232,1854,1846,1842
1431242,1871,1862,1870
1431252,1881,1871,1872
1431262,1874,1871,1867
1431272,1876,1869,1872
1431282,1862,1862,1865
1431292,1883,1871,1881
1431302,1869,1867,1867
1431312,1893,1873,1878
1431322,1895,1875,1877
1431332,1883,1862,1872
1431342,1890,1868,1872
1431352,1901,1872,1887
1431362,1920,1885,1895
1431372,1913,1879,1898
1431382,1888,1862,1867
1431392,1904,1872,1886
1431402,1909,1883,1892
1431412,1911,1879,1895
1431422,1904,1873,1891
1431432,1872,1859,1861
1431442,1893,1870,1876
1431452,1899,1873,1885
1431462,1891,1872,1878
1431472,1883,1870,1872
1431482,1840,1853,1850
1431492,1867,1872,1870
1431502,1858,1855,1855
1431512,1872,1871,1869
1431522,1870,1862,1867
1431532,1856,1841,1841
1431542,1841,1850,1857
1431552,1863,1868,1871
1431562,1875,1871,1870
1431572,1869,1859,1863
1431582,1857,1849,1840
1431592,1867,1865,1862
1431602,1876,1862,1865
1431612,1887,1872,1877
1431622,1879,1870,1872
1431632,1872,1863,1854
1431642,1859,1859,1855
1431652,1879,1872,1872
1431662,1882,1873,1882
1431672,1883,1871,1873
1431682,1875,1870,1871
1431692,1872,1865,1870
1431702,1886,1864,1872
1431712,1887,1871,1875
1431722,1879,1866,1871
1431732,1873,1866,1865
1431742,1856,1853,1853
1431752,1874,1873,1871
1431762,1873,1870,1873
1431772,1873,1867,1867
1431782,1869,1863,1868
1431792,1859,1867,1872
1431802,1857,1856,1854
1431812,1881,1866,1877
1431822,1872,1867,1866
1431832,1866,1863,1865
1431842,1866,1851,1851
1431852,1857,1862,1862
1431862,1869,1871,1866
1431872,1867,1862,1865
1431882,1867,1862,1866
1431892,1870,1842,1842
1431902,1855,1856,1857
1431912,1880,1874,1870
1431922,1872,1865,1866
1431932,1870,1867,1862
1431942,1840,1846,1847
1431952,1879,1870,1872
1431962,1867,1870,1869
1431972,1873,1860,1861
1431982,1869,1866,1862
1431992,1856,1866,1871
1432002,1872,1865,1856
1432012,1870,1871,1872
1432022,1872,1867,1871
1432032,1870,1867,1861
1432042,1867,1841,1840
1432052,1866,1867,1863
1432062,1875,1869,1870
1432072,1875,1849,1869
1432082,1879,1866,1869
1432092,1855,1849,1843
1432102,1883,1871,1879
1432112,1897,1875,1888
1432122,1898,1872,1878
1432132,1902,1876,1888
1432142,1873,1863,1875
1432152,1906,1881,1900
1432162,1917,1884,1901
1432172,1910,1877,1891
1432182,1905,1875,1886
1432192,1901,1862,1860
1432202,1883,1871,1879
1432212,1898,1875,1889
1432222,1897,1874,1883
1432232,1888,1869,1877
1432242,1860,1852,1850
1432252,1871,1859,1872
1432262,1881,1872,1872
1432272,1872,1863,1872
1432282,1870,1869,1863
1432292,1879,1840,1839
1432302,1859,1861,1862
1432312,1869,1870,1868
1432322,1866,1862,1862
1432332,1862,1862,1863
1432342,1872,1872,1855
1432352,1860,1854,1851
1432362,1859,1868,1855
1432372,1872,1869,1869
1432382,1873,1866,1865
1432392,1875,1869,1874
1432402,1878,1874,1877
1432412,1872,1862,1862
1432422,1893,1872,1872
1432432,1884,1872,1872
1432442,1884,1867,1872
1432452,1871,1865,1872
1432462,1891,1873,1875
1432472,1887,1869,1872
1432482,1877,1866,1872
1432492,1882,1867,1872
1432502,1871,1872,1873
1432512,1890,1872,1872
1432522,1877,1870,1866
1432532,1877,1870,1869
1432542,1874,1869,1870
1432552,1870,1866,1862
1432562,1880,1867,1869
1432572,1897,1863,1858
1432582,1874,1865,1865
1432592,1872,1869,1869
1432602,1849,1841,1841
1432612,1861,1859,1855
1432622,1881,1866,1868
1432632,1872,1866,1862
1432642,1872,1867,1866
1432652,1840,1859,1853
1432662,1871,1870,1871
1432672,1878,1882,1869
1432682,1875,1866,1872
1432692,1872,1869,1871
1432702,1843,1846,1849
1432712,1862,1862,1866
1432722,1878,1874,1886
1432732,1877,1865,1871
1432742,1873,1870,1871
1432752,1855,1856,1865
