timestamp_ms_device,ppg_finger1,ppg_finger2,ppg_finger3
488635,1854,1842,1840
488645,1856,1841,1840
488655,1855,1843,1840
488665,1855,1843,1838
488675,1849,1841,1839
488685,1847,1847,1839
488695,1853,1841,1839
488705,1850,1841,1839
488715,1854,1838,1834
488725,1855,1840,1834
488735,1853,1838,1838
488745,1851,1846,1835
488755,1851,1840,1829
488765,1855,1843,1839
488775,1856,1845,1841
488785,1853,1847,1840
488795,1857,1847,1846
488805,1866,1844,1842
488815,1872,1849,1855
488825,1870,1853,1859
488835,1872,1851,1867
488845,1876,1857,1866
488855,1873,1854,1871
488865,1873,1857,1874
488875,1871,1857,1874
488885,1870,1855,1880
488895,1875,1857,1878
488905,1874,1859,1873
488915,1872,1856,1878
488925,1871,1858,1872
488935,1872,1849,1867
488945,1865,1851,1867
488955,1865,1842,1861
488965,1857,1847,1861
488975,1855,1850,1855
488985,1855,1842,1854
488995,1846,1845,1853
489005,1847,1841,1847
489015,1847,1841,1843
489025,1845,1846,1838
489035,1845,1840,1840
489045,1846,1840,1843
489055,1841,1842,1837
489065,1847,1846,1842
489075,1842,1843,1839
489085,1847,1840,1839
489095,1846,1844,1837
489105,1847,1846,1840
489115,1850,1846,1840
489125,1847,1839,1840
489135,1848,1840,1840
489145,1858,1845,1840
489155,1855,1849,1841
489165,1861,1845,1840
489175,1856,1847,1841
489185,1859,1840,1845
489195,1854,1845,1846
489205,1856,1845,1845
489215,1851,1841,1844
489225,1850,1845,1842
489235,1857,1842,1842
489245,1847,1842,1840
489255,1851,1841,1841
489265,1847,1843,1840
489275,1851,1844,1842
489285,1845,1841,1840
489295,1850,1842,1840
489305,1846,1843,1840
489315,1851,1839,1838
489325,1840,1835,1834
489335,1847,1840,1840
489345,1846,1840,1840
489355,1856,1845,1841
489365,1853,1843,1839
489375,1856,1845,1845
489385,1855,1847,1847
489395,1861,1856,1851
489405,1871,1854,1863
489415,1869,1852,1867
489425,1872,1854,1872
489435,1875,1853,1874
489445,1872,1858,1873
489455,1875,1861,1887
489465,1873,1857,1883
489475,1872,1865,1888
489485,1872,1859,1882
489495,1867,1861,1879
489505,1872,1856,1878
489515,1868,1851,1871
489525,1861,1858,1871
489535,1870,1849,1861
489545,1861,1855,1861
489555,1861,1853,1857
489565,1857,1841,1854
489575,1859,1843,1850
489585,1855,1840,1839
489595,1851,1844,1856
489605,1853,1842,1842
489615,1852,1837,1841
489625,1851,1857,1840
489635,1854,1840,1836
489645,1851,1842,1839
489655,1855,1838,1840
489665,1845,1839,1835
489675,1848,1840,1841
489685,1852,1840,1840
489695,1853,1843,1840
489705,1853,1847,1842
489715,1847,1841,1840
489725,1850,1843,1846
489735,1849,1843,1838
489745,1852,1844,1841
489755,1844,1841,1839
489765,1852,1842,1840
489775,1855,1846,1840
489785,1858,1843,1841
489795,1842,1845,1841
489805,1852,1846,1840
489815,1846,1845,1839
489825,1849,1841,1841
489835,1852,1846,1841
489845,1856,1840,1840
489855,1847,1840,1830
489865,1851,1843,1837
489875,1854,1847,1840
489885,1854,1845,1830
489895,1847,1838,1838
489905,1856,1842,1840
489915,1859,1843,1838
489925,1861,1845,1835
489935,1859,1847,1855
489945,1856,1855,1840
489955,1867,1855,1851
489965,1863,1858,1858
489975,1869,1861,1859
489985,1872,1853,1872
489995,1871,1859,1874
490005,1877,1856,1878
490015,1872,1859,1874
490025,1873,1859,1879
490035,1870,1864,1883
490045,1872,1856,1879
490055,1872,1856,1874
490065,1871,1854,1876
490075,1868,1853,1878
490085,1859,1850,1870
490095,1863,1856,1869
490105,1867,1849,1866
490115,1857,1850,1857
490125,1855,1853,1858
490135,1853,1843,1854
490145,1856,1843,1841
490155,1849,1845,1842
490165,1857,1840,1840
490175,1847,1840,1840
490185,1851,1840,1840
490195,1845,1840,1840
490205,1850,1837,1837
490215,1851,1840,1838
490225,1856,1841,1833
490235,1851,1839,1829
490245,1850,1840,1835
490255,1853,1841,1835
490265,1857,1847,1839
490275,1855,1847,1840
490286,1851,1842,1841
490296,1855,1839,1840
490306,1853,1851,1840
490316,1858,1840,1846
490326,1853,1848,1844
490336,1853,1846,1841
490346,1854,1841,1841
490356,1853,1840,1840
490366,1856,1841,1843
490376,1855,1840,1840
490386,1850,1840,1840
490396,1854,1842,1839
490406,1858,1837,1840
490416,1852,1843,1840
490426,1851,1841,1841
490436,1851,1840,1833
490446,1850,1845,1835
490456,1847,1843,1838
490466,1856,1842,1833
490476,1847,1840,1840
490486,1846,1845,1839
490496,1846,1846,1841
490506,1855,1842,1844
490516,1855,1845,1840
490526,1862,1844,1843
490536,1862,1855,1855
490546,1869,1851,1861
490556,1872,1856,1866
490566,1875,1861,1873
490576,1879,1862,1882
490586,1872,1857,1885
490596,1875,1862,1887
490606,1873,1859,1886
490616,1886,1858,1885
490626,1872,1858,1875
490636,1871,1863,1873
490646,1871,1855,1877
490656,1868,1851,1872
490666,1863,1855,1867
490676,1855,1850,1866
490686,1863,1849,1859
490696,1853,1852,1854
490706,1852,1840,1856
490716,1845,1843,1846
490726,1847,1840,1847
490736,1843,1837,1839
490746,1843,1839,1838
490756,1842,1841,1834
490766,1843,1840,1838
490776,1845,1844,1831
490786,1847,1841,1834
490796,1847,1840,1834
490806,1851,1845,1831
490816,1850,1844,1838
490826,1850,1839,1840
490836,1854,1845,1839
490846,1852,1845,1831
490856,1863,1841,1839
490866,1860,1846,1845
490876,1855,1840,1834
490886,1859,1845,1841
490896,1853,1845,1840
490906,1867,1853,1841
490916,1857,1840,1839
490926,1863,1840,1837
490936,1851,1841,1840
490946,1849,1843,1837
490956,1855,1840,1840
490966,1853,1840,1840
490976,1850,1840,1842
490986,1853,1844,1840
490996,1854,1843,1840
491006,1856,1836,1837
491016,1847,1838,1834
491026,1843,1841,1840
491036,1845,1840,1829
491046,1853,1840,1838
491056,1850,1842,1840
491066,1851,1846,1843
491076,1845,1846,1845
491086,1851,1847,1840
491096,1859,1843,1852
491106,1865,1855,1858
491116,1871,1847,1863
491126,1870,1857,1869
491136,1874,1860,1872
491146,1879,1857,1875
491156,1878,1862,1873
491166,1874,1864,1877
491176,1877,1862,1881
491186,1877,1855,1877
491196,1872,1858,1877
491206,1873,1856,1875
491216,1872,1863,1872
491226,1874,1855,1872
491236,1871,1856,1869
491246,1869,1850,1864
491256,1866,1843,1862
491266,1856,1846,1857
491276,1857,1846,1855
491286,1857,1843,1845
491296,1855,1840,1841
491306,1850,1841,1842
491316,1845,1837,1840
491326,1843,1840,1840
491336,1844,1841,1835
491346,1846,1840,1831
491356,1849,1835,1838
491366,1844,1839,1837
491376,1847,1841,1837
491386,1847,1842,1834
491396,1843,1846,1839
491406,1853,1841,1838
491416,1849,1839,1838
491426,1844,1841,1840
491436,1842,1841,1840
491446,1847,1840,1839
491456,1845,1841,1842
491466,1845,1840,1844
491476,1847,1847,1840
491486,1851,1842,1840
491496,1846,1840,1836
491506,1858,1839,1840
491516,1851,1842,1842
491526,1850,1841,1839
491536,1851,1843,1839
491546,1853,1842,1838
491556,1854,1840,1835
491566,1855,1840,1838
491576,1856,1841,1837
491586,1849,1842,1835
491596,1845,1840,1838
491606,1840,1840,1834
491616,1852,1843,1836
491626,1847,1840,1840
491636,1849,1841,1840
491646,1847,1847,1850
491656,1855,1855,1851
491666,1858,1851,1860
491676,1869,1856,1867
491686,1866,1861,1865
491696,1870,1855,1872
491706,1872,1855,1873
491716,1867,1866,1884
491726,1871,1857,1885
491736,1871,1858,1885
491746,1872,1863,1883
491756,1863,1856,1872
491766,1872,1857,1875
491776,1872,1860,1872
491786,1870,1855,1874
491796,1872,1851,1863
491806,1867,1861,1862
491816,1863,1850,1855
491826,1862,1852,1856
491836,1863,1842,1846
491846,1859,1844,1843
491856,1856,1843,1840
491866,1856,1843,1835
491876,1846,1840,1836
491886,1851,1847,1829
491896,1851,1845,1830
491906,1844,1840,1837
491916,1846,1843,1830
491926,1845,1840,1831
491936,1843,1838,1831
491946,1850,1840,1837
491956,1841,1840,1837
491966,1854,1840,1838
491976,1846,1845,1839
491986,1845,1842,1841
491996,1856,1840,1837
492006,1847,1841,1840
492016,1845,1846,1843
492026,1845,1841,1839
492036,1850,1850,1836
492046,1851,1840,1837
492056,1854,1841,1839
492066,1856,1841,1839
492076,1853,1840,1841
492086,1855,1840,1834
492096,1847,1845,1833
492106,1852,1842,1837
492116,1843,1840,1828
492126,1852,1840,1840
492136,1855,1842,1839
492146,1853,1843,1840
492156,1856,1846,1839
492166,1856,1845,1838
492176,1856,1842,1837
492186,1855,1838,1840
492196,1853,1849,1842
492206,1861,1847,1851
492216,1860,1854,1851
492226,1856,1847,1856
492236,1865,1856,1863
492246,1862,1855,1872
492256,1871,1858,1878
492266,1871,1857,1875
492276,1875,1857,1876
492286,1866,1854,1882
492296,1871,1859,1877
492306,1870,1859,1877
492316,1872,1856,1879
492326,1863,1859,1873
492336,1868,1853,1870
492346,1867,1849,1870
492356,1859,1842,1870
492366,1861,1846,1861
492376,1865,1843,1850
492386,1861,1841,1850
492396,1865,1840,1846
492406,1855,1844,1840
492416,1856,1838,1842
492426,1855,1841,1838
492436,1851,1840,1839
492446,1859,1842,1839
492456,1855,1843,1831
492466,1857,1839,1829
492476,1855,1840,1837
492486,1856,1843,1833
492496,1856,1837,1826
492506,1849,1840,1837
492516,1845,1843,1837
492526,1843,1840,1840
492536,1854,1849,1838
492546,1854,1845,1839
492556,1847,1840,1840
492566,1853,1853,1841
492576,1851,1840,1841
492586,1857,1841,1841
492596,1853,1840,1847
492606,1850,1846,1845
492616,1856,1843,1840
492626,1854,1840,1840
492636,1855,1840,1835
492646,1856,1847,1842
492656,1856,1841,1838
492666,1851,1841,1839
492676,1850,1846,1835
492686,1850,1840,1840
492696,1854,1840,1835
492706,1851,1849,1839
492716,1853,1840,1837
492726,1854,1845,1835
492736,1856,1842,1839
492746,1859,1849,1840
492756,1856,1849,1849
492766,1863,1848,1854
492776,1859,1851,1855
492786,1865,1846,1866
492796,1862,1845,1865
492806,1869,1859,1871
492816,1872,1861,1872
492826,1872,1860,1875
492836,1872,1860,1872
492846,1871,1850,1875
492856,1872,1859,1877
492866,1872,1857,1876
492876,1869,1852,1877
492886,1863,1853,1877
492896,1859,1851,1865
492906,1862,1851,1867
492916,1854,1848,1856
492926,1851,1842,1855
492936,1857,1841,1849
492946,1856,1845,1847
492956,1856,1840,1837
492966,1851,1847,1838
492976,1853,1842,1839
492986,1843,1840,1830
492996,1854,1841,1822
493006,1847,1841,1835
493016,1851,1841,1827
493026,1852,1842,1834
493036,1855,1837,1829
493046,1855,1840,1829
493056,1854,1841,1837
493066,1851,1840,1838
493076,1855,1846,1839
493086,1857,1841,1839
493096,1861,1840,1841
493106,1856,1842,1840
493116,1862,1840,1843
493126,1863,1843,1839
493136,1866,1847,1843
493146,1863,1846,1844
493156,1859,1840,1846
493166,1857,1841,1842
493176,1859,1840,1840
493186,1852,1840,1839
493196,1852,1840,1840
493206,1850,1843,1841
493216,1847,1840,1838
493226,1851,1840,1843
493236,1851,1836,1840
493246,1844,1840,1837
493256,1851,1847,1840
493266,1847,1841,1840
493276,1850,1840,1835
493286,1847,1840,1839
493296,1851,1840,1837
493306,1854,1842,1838
493316,1857,1844,1839
493326,1856,1842,1845
493336,1861,1847,1849
493346,1862,1849,1853
493356,1866,1852,1862
493366,1871,1855,1869
493376,1871,1856,1870
493386,1873,1859,1875
493396,1875,1862,1872
493406,1870,1859,1878
493416,1872,1861,1874
493426,1870,1861,1877
493436,1872,1862,1882
493446,1871,1859,1879
493456,1872,1856,1873
493466,1872,1854,1871
493476,1870,1857,1863
493486,1863,1855,1863
493496,1859,1844,1856
493506,1861,1840,1856
493516,1855,1850,1846
493526,1858,1841,1847
493536,1851,1842,1842
493546,1850,1840,1840
493556,1843,1840,1838
493566,1844,1839,1838
493576,1846,1840,1830
493586,1847,1839,1831
493596,1851,1840,1830
493606,1850,1837,1834
493616,1845,1840,1831
493626,1856,1842,1835
493636,1853,1840,1834
493646,1846,1845,1840
493656,1856,1840,1841
493666,1853,1841,1839
493676,1849,1844,1842
493686,1856,1846,1841
493696,1859,1839,1842
493706,1850,1840,1840
493716,1853,1841,1841
493726,1856,1840,1840
493736,1851,1843,1840
493746,1851,1841,1839
493756,1855,1841,1840
493766,1846,1839,1840
493776,1855,1837,1840
493786,1846,1842,1840
493796,1846,1839,1837
493806,1846,1841,1833
493816,1845,1842,1840
493826,1851,1841,1835
493836,1856,1843,1837
493846,1856,1842,1830
493856,1855,1841,1830
493866,1853,1845,1837
493876,1850,1840,1830
493886,1857,1840,1837
493896,1851,1840,1836
493906,1857,1845,1844
493916,1865,1843,1845
493926,1867,1851,1847
493936,1867,1856,1857
493946,1872,1862,1859
493956,1872,1856,1872
493966,1873,1858,1875
493976,1872,1854,1879
493986,1878,1866,1885
493996,1879,1859,1882
494006,1873,1867,1887
494016,1874,1856,1879
494026,1871,1862,1883
494036,1875,1863,1877
494046,1872,1856,1873
494056,1861,1855,1871
494066,1870,1852,1863
494076,1859,1850,1859
494086,1858,1847,1855
494096,1856,1840,1856
494106,1855,1848,1852
494116,1853,1840,1847
494126,1854,1841,1841
494136,1850,1840,1838
494146,1846,1843,1834
494156,1850,1840,1836
494166,1853,1841,1830
494176,1846,1839,1837
494186,1854,1840,1831
494196,1849,1840,1834
494206,1847,1840,1836
494216,1855,1840,1840
494226,1845,1841,1840
494236,1853,1840,1840
494246,1853,1843,1839
494256,1843,1839,1840
494266,1850,1840,1842
494276,1849,1843,1840
494286,1852,1840,1841
494296,1853,1842,1838
494306,1854,1843,1840
494316,1852,1845,1843
494326,1857,1840,1841
494336,1853,1840,1843
494346,1853,1842,1837
494356,1856,1845,1839
494366,1856,1846,1841
494376,1851,1840,1841
494386,1846,1842,1840
494396,1854,1841,1837
494406,1851,1840,1840
494416,1845,1840,1841
494426,1847,1840,1839
494436,1849,1841,1836
494446,1851,1845,1839
494456,1850,1840,1835
494466,1852,1840,1836
494476,1847,1840,1835
494486,1850,1845,1840
494496,1850,1840,1838
494506,1851,1837,1840
494516,1854,1840,1846
494526,1856,1846,1845
494536,1863,1853,1856
494546,1863,1853,1858
494556,1870,1850,1863
494566,1871,1863,1869
494576,1873,1856,1877
494586,1872,1860,1882
494596,1875,1859,1885
494606,1874,1862,1886
494616,1878,1861,1888
494626,1875,1859,1886
494636,1872,1855,1883
494646,1869,1854,1879
494656,1869,1855,1874
494666,1871,1853,1873
494676,1869,1853,1872
494686,1865,1850,1866
494696,1863,1850,1858
494706,1862,1847,1854
494716,1858,1845,1851
494726,1854,1846,1846
494736,1851,1842,1840
494746,1851,1838,1839
494756,1855,1840,1838
494766,1849,1840,1830
494776,1846,1845,1831
494786,1847,1840,1833
494796,1855,1840,1835
494806,1853,1840,1839
494816,1855,1841,1834
494826,1855,1843,1839
494836,1854,1843,1834
494846,1852,1840,1839
494856,1857,1840,1839
494866,1853,1847,1840
494876,1856,1840,1841
494886,1856,1841,1840
494896,1853,1845,1841
494906,1858,1842,1839
494916,1857,1840,1840
494926,1857,1840,1839
494936,1855,1843,1840
494946,1857,1840,1837
494956,1854,1840,1838
494966,1853,1840,1840
494976,1851,1840,1840
494986,1855,1838,1840
494996,1846,1840,1835
495006,1851,1843,1838
495016,1852,1840,1839
495026,1847,1840,1834
495036,1851,1840,1835
495046,1843,1840,1830
495056,1854,1840,1833
495066,1854,1839,1837
495076,1857,1847,1839
495086,1856,1844,1839
495096,1854,1840,1840
495106,1854,1842,1839
495116,1855,1842,1840
495126,1855,1854,1839
495136,1859,1849,1854
495146,1862,1855,1853
495156,1870,1855,1861
495166,1872,1853,1863
495176,1872,1861,1872
495186,1873,1858,1877
495196,1879,1857,1883
495206,1879,1857,1882
495216,1877,1862,1889
495226,1879,1856,1889
495236,1875,1860,1886
495246,1870,1863,1888
495256,1875,1854,1879
495266,1872,1856,1879
495276,1870,1854,1873
495286,1865,1851,1868
495296,1858,1843,1871
495306,1855,1851,1863
495316,1856,1846,1856
495326,1849,1837,1849
495336,1854,1847,1841
495346,1850,1843,1849
495356,1843,1850,1839
495366,1849,1840,1842
495376,1844,1842,1835
495386,1843,1833,1834
495396,1851,1840,1831
495406,1856,1840,1831
495416,1854,1842,1832
495426,1857,1838,1835
495436,1857,1843,1833
495446,1855,1838,1831
495456,1856,1840,1840
495466,1854,1847,1840
495476,1861,1842,1838
495486,1859,1844,1837
495496,1857,1846,1843
495506,1857,1842,1843
495516,1858,1850,1847
495526,1856,1846,1844
495536,1853,1845,1845
495546,1853,1842,1845
495556,1851,1840,1851
495566,1850,1841,1840
495576,1856,1842,1845
495586,1851,1840,1842
495596,1842,1842,1843
495606,1840,1840,1841
495616,1843,1840,1838
495626,1852,1840,1839
495636,1845,1839,1839
495646,1851,1840,1840
495656,1844,1840,1835
495666,1847,1840,1837
495676,1854,1843,1834
495686,1850,1840,1839
495696,1850,1840,1835
495706,1850,1845,1831
495716,1856,1849,1837
495726,1861,1845,1842
495736,1863,1849,1843
495746,1867,1853,1842
495756,1863,1849,1862
495766,1871,1845,1857
495776,1878,1856,1867
495786,1875,1860,1873
495796,1878,1855,1883
495806,1884,1863,1883
495816,1888,1859,1886
495826,1883,1864,1883
495836,1879,1859,1892
495846,1878,1856,1887
495856,1872,1863,1893
495866,1872,1856,1883
495876,1861,1850,1886
495886,1859,1850,1875
495896,1858,1846,1872
495906,1855,1845,1867
495916,1855,1840,1862
495926,1853,1843,1858
495936,1852,1841,1851
495946,1847,1843,1836
495956,1849,1840,1839
495966,1846,1842,1840
495976,1845,1835,1837
495986,1850,1842,1829
495996,1853,1840,1829
496006,1853,1844,1831
496016,1850,1841,1827
496026,1849,1840,1835
496036,1852,1842,1837
496046,1845,1844,1829
496056,1860,1841,1842
496066,1857,1840,1843
496076,1851,1838,1840
496086,1855,1843,1840
496096,1850,1839,1840
496106,1859,1847,1840
496116,1856,1851,1847
496126,1849,1851,1842
496136,1855,1845,1842
496146,1856,1840,1841
496156,1856,1846,1847
496166,1859,1840,1840
496176,1858,1840,1839
496186,1854,1839,1840
496196,1857,1840,1840
496206,1853,1839,1834
496216,1853,1840,1840
496226,1857,1840,1836
496236,1858,1840,1840
496246,1850,1842,1840
496256,1854,1841,1833
496266,1855,1842,1838
496276,1851,1842,1839
496286,1851,1843,1839
496296,1851,1845,1836
496306,1852,1840,1842
496316,1852,1840,1847
496326,1853,1850,1843
496336,1853,1848,1851
496346,1856,1847,1858
496356,1863,1847,1865
496366,1865,1849,1867
496376,1861,1855,1872
496386,1872,1865,1873
496396,1863,1856,1879
496406,1872,1861,1888
496416,1875,1863,1885
496426,1873,1858,1885
496436,1880,1865,1885
496446,1872,1862,1885
496456,1872,1861,1873
496466,1872,1855,1873
496476,1872,1857,1872
496486,1866,1850,1864
496496,1861,1853,1856
496506,1861,1847,1853
496516,1863,1853,1854
496526,1863,1841,1847
496536,1856,1841,1845
496546,1859,1841,1840
496556,1855,1843,1839
496566,1855,1842,1840
496576,1854,1841,1832
496586,1851,1837,1830
496596,1851,1847,1834
496606,1845,1842,1833
496616,1846,1842,1839
496626,1841,1839,1831
496636,1845,1837,1841
496646,1851,1835,1840
496656,1853,1844,1841
496666,1845,1841,1840
496676,1862,1840,1845
496686,1850,1845,1843
496696,1849,1840,1840
496706,1851,1847,1845
496716,1857,1840,1847
496726,1863,1841,1841
496736,1855,1850,1842
496746,1855,1846,1840
496756,1850,1840,1837
496766,1854,1840,1834
496776,1853,1844,1839
496786,1856,1845,1835
496796,1851,1840,1831
496806,1856,1841,1839
496816,1847,1840,1840
496826,1854,1841,1838
496836,1856,1840,1839
496846,1853,1841,1835
496856,1849,1840,1840
496866,1856,1840,1840
496876,1855,1839,1838
496886,1856,1841,1840
496896,1849,1841,1843
496906,1863,1845,1845
496916,1863,1856,1858
496926,1867,1854,1859
496936,1869,1847,1866
496946,1872,1856,1870
496956,1879,1859,1878
496966,1876,1854,1881
496976,1879,1859,1888
496986,1872,1859,1887
496996,1872,1857,1895
497006,1872,1858,1883
497016,1870,1856,1888
497026,1868,1855,1877
497036,1871,1864,1875
497046,1861,1848,1873
497056,1867,1853,1870
497066,1861,1851,1863
497076,1861,1855,1851
497086,1857,1847,1853
497096,1858,1846,1849
497106,1856,1842,1843
497116,1853,1840,1846
497126,1850,1840,1840
497136,1854,1840,1836
497146,1851,1846,1838
497156,1851,1843,1837
497166,1852,1843,1836
497176,1851,1843,1839
497186,1847,1838,1837
497196,1846,1847,1840
497206,1847,1845,1839
497216,1851,1840,1835
497226,1855,1841,1840
497236,1855,1851,1847
497246,1850,1840,1840
497256,1854,1841,1838
497266,1858,1852,1840
497276,1857,1845,1840
497286,1857,1845,1844
497296,1856,1851,1845
497306,1850,1840,1847
497316,1857,1847,1840
497326,1852,1845,1841
497336,1857,1843,1835
497346,1850,1840,1840
497356,1849,1846,1839
497366,1856,1843,1840
497376,1854,1839,1836
497386,1853,1842,1835
497396,1858,1843,1833
497406,1855,1840,1833
497416,1857,1842,1838
497426,1853,1845,1841
497436,1856,1842,1840
497446,1857,1843,1839
497456,1851,1843,1840
497466,1862,1843,1839
497476,1859,1850,1842
497486,1859,1842,1850
497496,1859,1851,1856
497506,1863,1853,1858
497516,1876,1857,1870
497526,1870,1859,1875
497536,1878,1857,1879
497546,1875,1861,1881
497556,1878,1864,1883
497566,1877,1866,1883
497576,1881,1863,1895
497586,1872,1865,1885
497596,1872,1863,1889
497606,1877,1862,1878
497616,1872,1862,1876
497626,1869,1855,1873
497636,1870,1853,1870
497646,1869,1856,1861
497656,1862,1847,1861
497666,1863,1847,1856
497676,1853,1841,1853
497686,1853,1843,1850
497696,1849,1840,1840
497706,1856,1846,1838
497716,1850,1838,1835
497726,1854,1839,1834
497736,1856,1841,1828
497746,1854,1840,1832
497756,1854,1841,1830
497766,1855,1842,1830
497776,1858,1844,1838
497786,1859,1843,1839
497796,1858,1841,1840
497806,1862,1842,1840
497816,1860,1841,1841
497826,1856,1841,1840
497836,1853,1843,1843
497846,1857,1846,1846
497856,1857,1845,1840
497866,1863,1842,1844
497876,1858,1844,1842
497886,1856,1846,1842
497896,1856,1847,1843
497906,1850,1846,1844
497916,1850,1842,1847
497926,1851,1841,1840
497936,1849,1840,1840
497946,1854,1843,1838
497956,1856,1843,1838
497966,1850,1841,1837
497976,1854,1840,1834
497986,1851,1842,1835
497996,1851,1840,1838
498006,1857,1840,1837
498016,1855,1840,1837
498026,1854,1843,1831
498036,1854,1844,1840
498046,1858,1846,1840
498056,1866,1839,1843
498066,1863,1847,1851
498076,1859,1843,1852
498086,1867,1845,1859
498096,1873,1857,1871
498106,1872,1856,1878
498116,1879,1856,1879
498126,1875,1862,1888
498136,1878,1863,1893
498146,1872,1860,1899
498156,1875,1862,1904
498166,1873,1861,1902
498176,1873,1862,1904
498186,1867,1858,1891
498196,1859,1851,1889
498206,1862,1850,1882
498216,1862,1852,1882
498226,1857,1846,1871
498236,1856,1851,1869
498246,1846,1843,1857
498256,1853,1846,1851
498266,1851,1844,1850
498276,1853,1845,1840
498286,1849,1841,1840
498296,1853,1839,1833
498306,1849,1839,1827
498316,1851,1836,1824
498326,1851,1841,1830
498336,1847,1840,1827
498346,1854,1842,1837
498356,1852,1843,1829
498366,1852,1841,1831
498376,1859,1841,1837
498386,1856,1844,1843
498396,1858,1845,1840
498406,1863,1840,1845
498416,1863,1847,1850
498426,1867,1845,1853
498436,1863,1847,1853
498446,1854,1849,1849
498456,1857,1843,1854
498466,1851,1844,1855
498476,1847,1840,1855
498486,1849,1840,1853
498496,1841,1835,1847
498506,1840,1840,1845
498516,1834,1840,1849
498526,1839,1841,1850
498536,1838,1841,1841
498546,1836,1840,1840
498556,1839,1841,1834
498566,1840,1840,1835
498576,1840,1842,1835
498586,1841,1835,1829
498596,1840,1841,1827
498606,1845,1841,1829
498616,1853,1847,1824
498626,1861,1847,1826
498636,1865,1846,1835
498646,1859,1847,1830
498656,1868,1851,1835
498666,1872,1853,1843
498676,1878,1861,1857
498686,1882,1859,1859
498696,1887,1869,1872
498706,1899,1861,1879
498716,1896,1868,1895
498726,1895,1868,1901
498736,1897,1870,1904
498746,1888,1872,1907
498756,1883,1868,1911
498766,1883,1863,1911
498776,1879,1866,1905
498786,1871,1861,1906
498796,1863,1859,1904
498806,1855,1855,1898
498816,1857,1855,1889
498826,1849,1851,1877
498836,1848,1850,1872
498846,1850,1845,1867
498856,1844,1840,1853
498866,1841,1838,1843
498876,1841,1842,1841
498886,1840,1840,1837
498896,1841,1840,1837
498906,1841,1840,1824
498916,1843,1840,1825
498926,1853,1845,1829
498936,1849,1840,1827
498946,1856,1847,1822
498956,1861,1845,1824
498966,1858,1839,1829
498976,1861,1843,1833
498986,1862,1842,1840
498996,1867,1851,1837
499006,1865,1846,1846
499016,1861,1842,1842
499026,1862,1853,1843
499036,1857,1847,1847
499046,1866,1841,1851
499056,1855,1842,1845
499066,1854,1845,1850
499076,1850,1845,1847
499086,1846,1840,1847
499096,1853,1850,1842
499106,1840,1839,1842
499116,1838,1840,1843
499126,1840,1840,1846
499136,1841,1840,1840
499146,1840,1838,1842
499156,1841,1840,1831
499166,1847,1840,1835
499176,1846,1843,1835
499186,1853,1840,1826
499196,1854,1840,1835
499206,1852,1840,1836
499216,1851,1842,1835
499226,1859,1843,1841
499236,1865,1850,1841
499246,1870,1843,1847
499256,1871,1851,1856
499266,1874,1855,1866
499276,1883,1859,1876
499286,1879,1859,1883
499296,1884,1858,1893
499306,1888,1870,1899
499316,1885,1867,1904
499326,1886,1866,1907
499336,1879,1865,1904
499346,1875,1866,1908
499356,1882,1858,1908
499366,1877,1865,1899
499376,1872,1857,1895
499386,1874,1858,1887
499396,1870,1858,1877
499406,1872,1846,1873
499416,1870,1849,1869
499426,1858,1843,1863
499436,1857,1851,1859
499446,1858,1840,1845
499456,1851,1845,1847
499466,1849,1840,1845
499476,1854,1844,1836
499486,1845,1840,1840
499496,1843,1836,1837
499506,1840,1840,1830
499516,1840,1840,1834
499526,1847,1831,1838
499536,1839,1840,1831
499546,1842,1840,1839
499556,1853,1845,1840
499566,1846,1840,1835
499576,1851,1840,1840
499586,1854,1847,1842
499596,1858,1844,1840
499606,1856,1843,1843
499616,1859,1845,1840
499626,1854,1840,1847
499636,1857,1841,1838
499646,1858,1845,1841
499656,1855,1845,1840
499666,1851,1843,1840
499676,1849,1843,1840
499686,1845,1840,1834
499696,1842,1844,1839
499706,1843,1841,1836
499716,1839,1840,1834
499726,1840,1840,1836
499736,1846,1840,1840
499746,1842,1839,1836
499756,1845,1842,1834
499766,1841,1841,1835
499776,1850,1839,1840
499786,1848,1840,1837
499796,1850,1841,1840
499806,1858,1840,1840
499816,1860,1849,1851
499826,1859,1846,1857
499836,1869,1853,1866
499846,1871,1853,1873
499856,1875,1858,1883
499866,1881,1861,1892
499876,1887,1859,1899
499886,1882,1866,1902
499896,1888,1869,1906
499906,1883,1867,1904
499916,1878,1869,1904
499926,1881,1865,1904
499936,1877,1856,1903
499946,1874,1866,1898
499956,1871,1861,1889
499966,1867,1861,1885
499976,1859,1853,1879
499986,1865,1847,1872
499996,1855,1852,1858
500006,1855,1842,1856
500016,1849,1842,1854
500026,1844,1840,1851
500036,1841,1840,1840
500046,1841,1837,1831
500056,1840,1840,1831
500066,1839,1838,1827
500076,1837,1833,1820
500086,1838,1839,1825
500096,1840,1840,1829
500106,1840,1840,1825
500116,1842,1841,1823
500126,1849,1840,1834
500136,1854,1845,1833
500146,1856,1845,1835
500156,1856,1843,1833
500166,1853,1851,1840
500176,1858,1841,1844
500186,1856,1845,1845
500196,1862,1850,1840
500206,1862,1843,1843
500216,1861,1849,1841
500226,1857,1853,1841
500236,1857,1846,1843
500246,1851,1843,1842
500256,1854,1842,1840
500266,1850,1841,1842
500276,1851,1840,1840
500286,1854,1844,1840
500296,1845,1840,1839
500306,1843,1840,1840
500316,1850,1839,1829
500326,1851,1840,1835
500336,1852,1840,1834
500346,1847,1840,1836
500356,1841,1840,1839
500366,1853,1843,1837
500376,1856,1843,1843
500386,1861,1854,1854
500396,1862,1855,1861
500406,1859,1857,1866
500416,1863,1856,1876
500426,1872,1863,1884
500436,1873,1856,1885
500446,1873,1860,1895
500456,1873,1867,1903
500466,1877,1867,1901
500476,1874,1860,1903
500486,1874,1868,1898
500496,1873,1859,1900
500506,1872,1857,1895
500516,1870,1854,1883
500526,1862,1851,1875
500536,1865,1858,1869
500546,1854,1854,1866
500556,1856,1854,1856
500566,1856,1847,1853
500576,1853,1849,1845
500586,1846,1840,1837
500596,1855,1840,1833
500606,1851,1842,1834
500616,1844,1838,1822
500626,1847,1839,1827
500636,1841,1840,1822
500646,1845,1843,1826
500656,1849,1845,1824
500666,1843,1840,1826
500676,1847,1839,1829
500686,1846,1841,1831
500696,1851,1841,1838
500706,1858,1841,1840
500716,1847,1845,1840
500726,1855,1843,1840
500736,1851,1843,1843
500746,1858,1846,1849
500756,1851,1843,1841
500766,1856,1843,1842
500776,1847,1841,1840
500786,1846,1840,1845
500796,1847,1838,1845
500806,1845,1841,1840
500816,1851,1840,1833
500826,1847,1843,1836
500836,1842,1840,1833
500846,1841,1840,1834
500856,1846,1842,1835
500866,1843,1840,1825
500876,1840,1839,1825
500886,1843,1840,1830
500896,1846,1839,1834
500906,1849,1843,1829
500916,1847,1841,1838
500926,1857,1842,1840
500936,1856,1846,1841
500946,1860,1853,1850
500956,1869,1856,1862
500966,1873,1853,1867
500976,1876,1862,1878
500986,1881,1869,1882
500996,1877,1866,1893
501006,1879,1872,1889
501016,1872,1872,1888
501026,1885,1869,1893
501036,1871,1869,1897
501046,1877,1867,1885
501056,1872,1867,1889
501066,1871,1856,1873
501076,1870,1855,1879
501086,1867,1856,1867
501096,1857,1854,1862
501106,1854,1853,1856
501116,1853,1847,1843
501126,1855,1844,1840
501136,1847,1838,1838
501146,1849,1840,1830
501156,1850,1840,1833
501166,1843,1837,1830
501176,1842,1837,1829
501186,1847,1839,1827
501196,1846,1840,1825
501206,1841,1842,1826
501216,1846,1837,1825
501226,1853,1840,1837
501236,1847,1840,1836
501246,1853,1840,1833
501256,1857,1853,1837
501266,1851,1840,1838
501276,1858,1841,1841
501286,1851,1851,1844
501296,1856,1843,1840
501306,1852,1845,1840
501316,1855,1839,1840
501326,1855,1840,1835
501336,1851,1842,1839
501346,1849,1837,1834
501356,1853,1845,1835
501366,1846,1847,1831
501376,1847,1844,1837
501386,1842,1841,1834
501396,1849,1839,1834
501406,1851,1841,1834
501416,1854,1840,1825
501426,1856,1840,1831
501436,1844,1840,1829
501446,1853,1840,1833
501456,1854,1845,1838
501466,1852,1840,1840
501476,1856,1846,1845
501486,1860,1853,1847
501496,1871,1850,1851
501506,1872,1852,1870
501516,1874,1859,1872
501526,1873,1861,1881
501536,1879,1867,1891
501546,1885,1866,1891
501556,1877,1861,1893
501566,1872,1866,1899
501576,1872,1867,1899
501586,1873,1863,1898
501596,1875,1860,1897
501606,1873,1855,1890
501616,1871,1855,1887
501626,1867,1855,1874
501636,1861,1845,1872
501646,1858,1847,1861
501656,1857,1845,1858
501666,1851,1840,1847
501676,1851,1840,1840
501686,1846,1840,1837
501696,1844,1831,1827
501706,1846,1838,1823
501716,1846,1835,1824
501726,1840,1845,1819
501736,1847,1840,1825
501746,1841,1840,1818
501756,1840,1839,1824
501766,1849,1840,1827
501776,1852,1837,1825
501786,1850,1845,1827
501796,1853,1846,1829
501806,1855,1845,1834
501816,1856,1844,1842
501826,1853,1847,1837
501836,1851,1841,1837
501846,1855,1843,1838
501856,1853,1840,1840
501866,1855,1840,1839
501876,1851,1847,1841
501886,1851,1840,1840
501896,1851,1847,1839
501906,1852,1840,1840
501916,1851,1834,1839
501926,1841,1840,1835
501936,1847,1844,1835
501946,1846,1836,1828
501956,1842,1839,1827
501966,1841,1840,1830
501976,1843,1835,1836
501986,1851,1840,1830
501996,1840,1837,1821
502006,1849,1840,1830
502016,1847,1838,1830
502026,1852,1839,1831
502036,1847,1843,1840
502046,1855,1843,1840
502056,1859,1841,1847
502066,1862,1854,1853
502076,1867,1851,1863
502086,1867,1862,1875
502096,1872,1866,1881
502106,1877,1862,1879
502116,1875,1866,1888
502126,1875,1872,1890
502136,1882,1867,1893
502146,1877,1868,1899
502156,1877,1867,1902
502166,1874,1869,1888
502176,1871,1856,1879
502186,1872,1859,1879
502196,1872,1856,1874
502206,1869,1853,1869
502216,1860,1851,1858
502226,1859,1841,1857
502236,1856,1842,1851
502246,1856,1838,1853
502256,1844,1840,1853
502266,1847,1843,1834
502276,1842,1839,1837
502286,1847,1834,1831
502296,1845,1840,1831
502306,1840,1835,1827
502316,1850,1833,1830
502326,1840,1839,1826
502336,1845,1839,1825
502346,1840,1840,1834
502356,1840,1839,1823
502366,1842,1844,1840
502376,1846,1843,1835
502386,1855,1846,1835
502396,1851,1850,1840
502406,1846,1843,1840
502416,1850,1844,1839
502426,1847,1842,1838
502436,1850,1843,1835
502446,1848,1841,1839
502456,1854,1843,1835
502466,1849,1846,1839
502476,1851,1840,1840
502486,1850,1839,1838
502496,1850,1840,1836
502506,1858,1844,1837
502516,1853,1840,1833
502526,1856,1842,1835
502536,1849,1837,1823
502546,1845,1842,1828
502556,1853,1845,1826
502566,1843,1844,1829
502576,1855,1840,1833
502586,1851,1841,1827
502596,1849,1845,1834
502606,1851,1838,1835
502616,1851,1839,1835
502626,1853,1841,1840
502636,1853,1850,1843
502646,1857,1841,1851
502656,1863,1853,1865
502666,1871,1855,1867
502676,1872,1862,1874
502686,1874,1866,1879
502696,1872,1859,1887
502706,1875,1866,1892
502716,1874,1868,1897
502726,1872,1861,1894
502736,1874,1861,1895
502746,1870,1857,1893
502756,1868,1861,1889
502766,1863,1856,1884
502776,1868,1858,1882
502786,1863,1855,1872
502796,1860,1846,1865
502806,1855,1847,1859
502816,1857,1848,1859
502826,1855,1840,1851
502836,1851,1838,1844
502846,1852,1834,1842
502856,1845,1839,1840
502866,1847,1837,1838
502876,1845,1840,1827
502886,1841,1835,1825
502896,1844,1840,1830
502906,1850,1840,1818
502916,1839,1834,1819
502926,1842,1838,1823
502936,1850,1842,1825
502946,1847,1840,1831
502956,1850,1842,1833
502966,1846,1841,1834
502976,1849,1840,1840
502986,1852,1846,1830
502996,1855,1840,1835
503006,1854,1842,1841
503016,1855,1847,1840
503026,1854,1841,1839
503036,1856,1843,1835
503046,1847,1846,1835
503056,1855,1838,1834
503066,1844,1839,1840
503076,1852,1841,1837
503086,1843,1835,1830
503096,1840,1838,1836
503106,1841,1840,1835
503116,1847,1842,1825
503126,1838,1840,1834
503136,1845,1839,1834
503146,1842,1839,1830
503156,1847,1840,1823
503166,1846,1838,1824
503176,1843,1840,1825
503186,1851,1841,1828
503196,1855,1840,1830
503206,1859,1840,1830
503216,1857,1845,1834
503226,1866,1846,1840
503236,1863,1841,1843
503246,1872,1855,1854
503256,1872,1856,1854
503266,1878,1856,1871
503276,1873,1858,1874
503286,1879,1867,1884
503296,1879,1869,1891
503306,1872,1869,1889
503316,1879,1866,1894
503326,1873,1865,1893
503336,1872,1867,1903
503346,1874,1861,1893
503356,1863,1856,1891
503366,1866,1857,1889
503376,1859,1856,1875
503386,1851,1848,1873
503396,1857,1853,1872
503406,1855,1843,1857
503416,1859,1852,1857
503426,1851,1840,1851
503436,1856,1840,1840
503446,1851,1840,1840
503456,1851,1840,1835
503466,1853,1837,1833
503476,1851,1840,1826
503486,1853,1840,1830
503496,1851,1841,1827
503506,1853,1840,1827
503516,1850,1842,1827
503526,1846,1840,1831
503536,1853,1834,1830
503546,1856,1838,1831
503556,1859,1846,1834
503566,1851,1840,1837
503576,1853,1838,1840
503586,1855,1843,1840
503596,1855,1843,1842
503606,1854,1841,1839
503616,1856,1840,1840
503626,1849,1840,1838
503636,1851,1840,1840
503646,1847,1840,1838
503656,1849,1839,1836
503666,1840,1840,1838
503676,1847,1836,1837
503686,1841,1839,1829
503696,1841,1841,1837
503706,1841,1840,1826
503716,1843,1840,1826
503726,1842,1841,1835
503736,1850,1838,1836
503746,1847,1837,1831
503756,1846,1841,1835
503766,1847,1840,1824
503776,1850,1837,1831
503786,1845,1841,1831
503796,1843,1840,1836
503806,1853,1841,1833
503816,1855,1845,1840
503826,1865,1842,1840
503836,1862,1842,1847
503846,1867,1851,1853
503856,1872,1853,1862
503866,1872,1859,1873
503876,1875,1862,1873
503886,1878,1862,1882
503896,1885,1858,1884
503906,1882,1867,1890
503916,1876,1859,1886
503926,1879,1866,1889
503936,1872,1866,1887
503946,1870,1869,1883
503956,1866,1855,1883
503966,1861,1857,1878
503976,1856,1857,1872
503986,1863,1850,1872
503996,1855,1850,1860
504006,1853,1841,1855
504016,1852,1839,1856
504026,1854,1839,1850
504036,1851,1839,1843
504046,1843,1836,1840
504056,1853,1835,1835
504066,1843,1840,1840
504076,1848,1837,1830
504086,1847,1840,1834
504096,1848,1842,1830
504106,1846,1841,1832
504116,1854,1840,1826
504126,1847,1843,1831
504136,1854,1839,1829
504146,1856,1837,1833
504156,1854,1843,1834
504166,1854,1840,1838
504176,1850,1841,1840
504186,1851,1841,1838
504196,1853,1842,1840
504206,1850,1840,1840
504216,1847,1840,1835
504226,1847,1837,1841
504236,1840,1840,1837
504246,1845,1840,1839
504256,1843,1835,1835
504266,1839,1843,1833
504276,1840,1838,1831
504286,1845,1843,1830
504296,1847,1835,1833
504306,1847,1840,1823
504316,1842,1837,1825
504326,1853,1841,1827
504336,1849,1846,1824
504346,1856,1840,1824
504356,1857,1840,1830
504366,1851,1843,1833
504376,1856,1846,1831
504386,1861,1838,1836
504396,1858,1845,1840
504406,1862,1840,1838
504416,1866,1846,1841
504426,1861,1845,1849
504436,1872,1851,1861
504446,1871,1853,1872
504456,1870,1857,1872
504466,1873,1859,1877
504476,1873,1858,1887
504486,1877,1856,1893
504496,1872,1869,1895
504506,1872,1856,1893
504516,1872,1859,1902
504526,1866,1858,1883
504536,1867,1855,1884
504546,1862,1856,1885
504556,1866,1853,1867
504566,1858,1850,1870
504576,1853,1850,1861
504586,1854,1851,1858
504596,1851,1842,1849
504606,1854,1845,1844
504616,1853,1840,1840
504626,1852,1840,1840
504636,1851,1840,1830
504646,1847,1840,1831
504656,1851,1840,1830
504666,1854,1840,1828
504676,1853,1840,1822
504686,1853,1836,1822
504696,1851,1840,1822
504706,1846,1841,1828
504716,1846,1840,1829
504726,1851,1841,1830
504736,1840,1840,1833
504746,1853,1838,1838
504756,1851,1841,1839
504766,1851,1845,1840
504776,1845,1839,1840
504786,1853,1845,1843
504796,1854,1840,1840
504806,1847,1839,1838
504816,1851,1840,1840
504826,1859,1840,1837
504836,1846,1840,1831
504846,1846,1840,1837
504856,1850,1840,1837
504866,1847,1839,1837
504876,1851,1840,1839
504886,1854,1840,1832
504896,1854,1841,1830
504906,1851,1839,1829
504916,1854,1840,1826
504926,1858,1840,1829
504936,1855,1840,1833
504946,1854,1843,1829
504956,1849,1843,1835
504966,1855,1841,1833
504976,1846,1844,1837
504986,1850,1840,1840
504996,1856,1845,1845
505006,1861,1842,1846
505016,1857,1855,1857
505026,1867,1850,1863
505036,1871,1858,1867
505046,1872,1854,1878
505056,1872,1866,1886
505066,1871,1859,1886
505076,1879,1862,1888
505086,1872,1861,1889
505096,1875,1859,1890
505106,1871,1858,1882
505116,1870,1862,1882
505126,1863,1860,1877
505136,1870,1847,1872
505146,1864,1855,1873
505156,1856,1853,1867
505166,1857,1845,1856
505176,1859,1845,1853
505186,1850,1844,1841
505196,1853,1838,1841
505206,1855,1840,1836
505216,1853,1840,1837
505226,1856,1843,1827
505236,1853,1841,1825
505246,1850,1837,1821
505256,1856,1839,1830
505266,1849,1840,1824
505276,1850,1840,1827
505286,1847,1841,1830
505296,1855,1842,1823
505306,1853,1843,1833
505316,1851,1843,1831
505326,1853,1845,1831
505336,1853,1840,1830
505346,1849,1846,1840
505356,1856,1840,1836
505366,1854,1849,1839
505376,1852,1845,1840
505386,1847,1843,1842
505396,1846,1839,1842
505406,1851,1846,1840
505416,1851,1840,1834
505426,1854,1843,1838
505436,1853,1845,1840
505446,1846,1840,1836
505456,1850,1843,1831
505466,1849,1840,1831
505476,1855,1839,1835
505486,1854,1839,1826
505496,1850,1837,1830
505506,1856,1839,1833
505516,1858,1840,1837
505526,1850,1845,1827
505536,1853,1840,1833
505546,1856,1846,1840
505556,1859,1850,1840
505566,1869,1845,1851
505576,1865,1846,1858
505586,1867,1859,1861
505596,1870,1857,1871
505606,1872,1857,1869
505616,1873,1856,1879
505626,1875,1856,1882
505636,1872,1857,1893
505646,1870,1859,1889
505656,1872,1867,1889
505666,1872,1855,1888
505676,1867,1857,1883
505686,1870,1855,1874
505696,1863,1849,1876
505706,1854,1847,1871
505716,1860,1851,1865
505726,1856,1840,1862
505736,1850,1843,1852
505746,1847,1841,1849
505756,1845,1842,1845
505766,1850,1840,1840
505776,1847,1838,1835
505786,1849,1828,1839
505796,1843,1840,1834
505806,1846,1840,1833
505816,1844,1840,1825
505826,1853,1840,1830
505836,1850,1833,1833
505846,1853,1840,1835
505856,1856,1847,1833
505866,1850,1844,1839
505876,1851,1842,1838
505886,1858,1840,1841
505896,1857,1843,1839
505906,1855,1846,1838
505916,1855,1842,1840
505926,1855,1847,1842
505936,1861,1849,1841
505946,1849,1840,1838
505956,1853,1841,1840
505966,1852,1844,1837
505976,1850,1839,1841
505986,1852,1841,1831
505996,1851,1840,1833
506006,1851,1841,1839
506016,1853,1842,1830
506026,1846,1845,1838
506036,1842,1842,1831
506046,1853,1839,1838
506056,1852,1840,1837
506066,1849,1839,1834
506076,1855,1837,1827
506086,1851,1843,1831
506096,1852,1840,1839
506106,1856,1840,1837
506116,1851,1847,1841
506126,1865,1846,1853
506136,1871,1854,1858
506146,1872,1856,1870
506156,1871,1859,1872
506166,1873,1858,1876
506176,1879,1863,1886
506186,1886,1862,1890
506196,1879,1868,1894
506206,1877,1862,1888
506216,1872,1862,1885
506226,1873,1865,1885
506236,1872,1861,1877
506246,1869,1861,1875
506256,1860,1851,1870
506266,1861,1854,1865
506276,1855,1855,1854
506286,1847,1852,1852
506296,1853,1842,1841
506306,1845,1845,1840
506316,1846,1839,1829
506326,1843,1846,1825
506336,1845,1842,1831
506346,1842,1841,1825
506356,1847,1840,1819
506366,1840,1839,1823
506376,1852,1839,1823
506386,1851,1841,1823
506396,1856,1838,1834
506406,1849,1845,1830
506416,1849,1842,1833
506426,1855,1843,1834
506436,1850,1844,1830
506446,1849,1840,1846
506456,1851,1842,1840
506466,1850,1840,1841
506476,1853,1844,1840
506486,1852,1842,1842
506496,1856,1843,1841
506506,1854,1844,1847
506516,1857,1847,1840
506526,1860,1838,1841
506536,1856,1840,1840
506546,1855,1840,1839
506556,1847,1846,1837
506566,1850,1845,1837
506576,1851,1840,1836
506586,1849,1841,1829
506596,1850,1846,1831
506606,1850,1840,1834
506616,1850,1840,1835
506626,1854,1838,1835
506636,1845,1841,1831
506646,1854,1841,1836
506656,1856,1839,1839
506666,1852,1842,1841
506676,1855,1843,1840
506686,1858,1842,1842
506696,1859,1853,1856
506706,1865,1856,1866
506716,1872,1856,1869
506726,1872,1858,1872
506736,1872,1859,1884
506746,1874,1858,1887
506756,1876,1865,1893
506766,1881,1861,1897
506776,1875,1857,1893
506786,1875,1862,1888
506796,1873,1862,1886
506806,1868,1866,1881
506816,1872,1863,1877
506826,1867,1855,1871
506836,1866,1851,1872
506846,1865,1850,1867
506856,1856,1847,1866
506866,1852,1844,1853
506876,1858,1840,1855
506886,1856,1841,1843
506896,1855,1838,1840
506906,1847,1841,1835
506916,1847,1840,1826
506926,1852,1840,1830
506936,1849,1840,1823
506946,1853,1837,1825
506956,1846,1840,1826
506966,1846,1839,1838
506976,1851,1840,1840
506986,1852,1840,1835
506996,1857,1841,1840
507006,1855,1843,1840
507016,1859,1841,1840
507026,1858,1846,1851
507036,1856,1841,1850
507046,1854,1840,1849
507056,1858,1847,1846
507066,1854,1841,1843
507076,1856,1842,1845
507086,1851,1847,1840
507096,1856,1850,1839
507106,1855,1840,1838
507116,1853,1845,1840
507126,1846,1841,1839
507136,1852,1844,1839
507146,1847,1840,1837
507156,1843,1844,1836
507166,1849,1845,1839
507176,1850,1840,1835
507186,1842,1838,1838
507196,1843,1841,1840
507206,1842,1840,1828
507216,1845,1840,1838
507226,1849,1840,1836
507236,1847,1842,1834
507246,1851,1852,1840
507256,1858,1842,1840
507266,1855,1849,1853
507276,1866,1849,1857
507286,1869,1851,1855
507296,1873,1857,1870
507306,1876,1859,1875
507316,1879,1861,1879
507326,1874,1863,1886
507336,1877,1866,1893
507346,1872,1863,1889
507356,1873,1858,1889
507366,1873,1867,1895
507376,1872,1862,1890
507386,1872,1856,1883
507396,1870,1859,1879
507406,1869,1853,1873
507416,1865,1853,1872
507426,1861,1853,1865
507436,1863,1843,1858
507446,1855,1851,1853
507456,1858,1845,1847
507466,1851,1841,1841
507476,1856,1842,1840
507486,1846,1840,1835
507496,1852,1842,1829
507506,1846,1840,1829
507516,1843,1840,1834
507526,1842,1840,1827
507536,1845,1840,1829
507546,1846,1835,1833
507556,1846,1839,1833
507566,1842,1840,1835
507576,1843,1841,1840
507586,1845,1840,1840
507596,1854,1845,1838
507606,1855,1842,1838
507616,1857,1841,1847
507626,1854,1840,1842
507636,1854,1842,1845
507646,1846,1842,1840
507656,1854,1840,1843
507666,1856,1847,1840
507676,1854,1842,1838
507686,1854,1849,1838
507696,1850,1844,1834
507706,1853,1842,1836
507716,1856,1842,1839
507726,1845,1838,1839
507736,1849,1840,1837
507746,1849,1844,1840
507756,1853,1840,1835
507766,1846,1840,1840
507776,1847,1839,1840
507786,1843,1840,1840
507796,1845,1838,1840
507806,1849,1840,1837
507816,1852,1840,1841
507826,1856,1845,1845
507836,1856,1850,1846
507846,1857,1844,1841
507856,1867,1847,1862
507866,1866,1856,1869
507876,1874,1856,1874
507886,1876,1857,1883
507896,1870,1862,1887
507906,1882,1862,1896
507916,1875,1863,1899
507926,1878,1861,1899
507936,1873,1863,1890
507946,1872,1863,1893
507956,1872,1856,1887
507966,1868,1858,1886
507976,1868,1859,1883
507986,1867,1858,1875
507996,1859,1856,1872
508006,1856,1846,1869
508016,1857,1846,1857
508026,1859,1842,1854
508036,1851,1842,1849
508046,1850,1840,1839
508056,1845,1840,1834
508066,1845,1842,1834
508076,1844,1840,1827
508086,1849,1837,1834
508096,1843,1840,1822
508106,1840,1839,1831
508116,1841,1841,1827
508126,1845,1840,1830
508136,1853,1836,1829
508146,1851,1840,1831
508156,1854,1839,1836
508166,1854,1849,1832
508176,1872,1839,1841
508186,1857,1845,1839
508196,1853,1843,1838
508206,1860,1844,1838
508216,1850,1843,1843
508226,1856,1844,1840
508236,1847,1840,1840
508246,1854,1846,1838
508256,1855,1840,1843
508266,1852,1842,1840
508276,1851,1834,1835
508286,1844,1848,1833
508296,1844,1843,1835
508306,1847,1842,1831
508316,1840,1849,1834
508326,1850,1837,1836
508336,1850,1840,1827
508346,1847,1840,1838
508356,1845,1846,1834
508366,1852,1841,1840
508376,1856,1840,1840
508386,1856,1840,1840
508396,1857,1846,1847
508406,1859,1847,1847
508416,1861,1849,1853
508426,1866,1854,1869
508436,1873,1856,1873
508446,1878,1857,1882
508456,1877,1857,1887
508466,1878,1870,1901
508476,1884,1865,1895
508486,1879,1859,1889
508496,1888,1865,1891
508506,1875,1858,1894
508516,1881,1867,1882
508526,1872,1859,1883
508536,1878,1854,1892
508546,1875,1856,1878
508556,1872,1853,1884
508566,1865,1841,1866
508576,1862,1849,1860
508586,1856,1846,1849
508596,1857,1853,1847
508606,1856,1845,1845
508616,1856,1846,1840
508626,1854,1833,1834
508636,1843,1845,1831
508646,1851,1840,1830
508656,1842,1828,1829
508666,1840,1834,1825
508676,1840,1840,1825
508686,1843,1838,1829
508696,1851,1838,1831
508706,1847,1840,1826
508716,1851,1837,1835
508726,1854,1841,1836
508736,1854,1847,1840
508746,1857,1849,1839
508756,1857,1842,1841
508766,1849,1849,1837
508776,1857,1842,1840
508786,1853,1845,1838
508796,1855,1846,1840
508806,1856,1852,1840
508816,1863,1844,1840
508826,1859,1843,1842
508836,1855,1841,1840
508846,1852,1846,1839
508856,1856,1838,1840
508866,1865,1843,1840
508876,1857,1842,1840
508886,1857,1840,1837
508896,1862,1844,1841
508906,1850,1838,1845
508916,1857,1841,1840
508926,1851,1842,1841
508936,1856,1841,1840
508946,1850,1849,1841
508956,1858,1843,1846
508966,1867,1847,1861
508976,1867,1849,1861
508986,1868,1855,1870
508996,1867,1854,1877
509006,1872,1859,1886
509016,1878,1863,1888
509026,1872,1861,1895
509036,1879,1859,1895
509046,1877,1862,1893
509056,1871,1871,1894
509066,1872,1862,1884
509076,1873,1863,1887
509086,1871,1867,1877
509096,1873,1863,1872
509106,1857,1858,1872
509116,1872,1856,1865
509126,1867,1857,1859
509136,1860,1849,1859
509146,1861,1842,1851
509156,1861,1849,1853
509166,1852,1843,1842
509176,1857,1845,1842
509186,1853,1840,1839
509196,1854,1842,1840
509206,1856,1837,1830
509216,1853,1840,1831
509226,1845,1839,1823
509236,1847,1840,1830
509246,1845,1840,1831
509256,1845,1843,1834
509266,1845,1840,1837
509276,1846,1840,1836
509286,1851,1841,1840
509296,1846,1840,1840
509306,1845,1842,1840
509316,1845,1845,1836
509326,1847,1840,1839
509336,1849,1840,1842
509346,1854,1841,1839
509356,1848,1839,1836
509366,1855,1841,1840
509376,1841,1840,1839
509386,1847,1840,1835
509396,1842,1840,1838
509406,1851,1838,1838
509416,1856,1840,1831
509426,1851,1840,1834
509436,1853,1840,1837
509446,1854,1840,1830
509456,1854,1840,1830
509466,1850,1840,1835
509476,1847,1840,1835
509486,1855,1844,1840
509496,1856,1849,1842
509506,1858,1843,1847
509516,1866,1849,1849
509526,1874,1854,1860
509536,1875,1855,1868
509546,1875,1860,1873
509556,1879,1861,1882
509566,1883,1863,1887
509576,1881,1863,1898
509586,1878,1869,1897
509596,1883,1872,1898
509606,1874,1867,1895
509616,1872,1858,1890
509626,1871,1852,1887
509636,1866,1858,1878
509646,1867,1847,1873
509656,1863,1847,1872
509666,1856,1847,1861
509676,1856,1847,1854
509686,1851,1842,1847
509696,1861,1845,1840
509706,1853,1846,1838
509716,1851,1840,1833
509726,1850,1840,1826
509736,1855,1838,1833
509746,1850,1837,1827
509756,1842,1838,1826
509766,1845,1836,1824
509776,1843,1842,1828
509786,1854,1839,1826
509796,1850,1841,1831
509806,1855,1839,1830
509816,1858,1842,1840
509826,1853,1840,1838
509836,1849,1840,1841
509846,1851,1842,1840
509856,1856,1845,1840
509866,1855,1843,1838
509876,1851,1846,1841
509886,1853,1843,1840
509896,1853,1840,1840
509906,1853,1847,1839
509916,1854,1839,1831
509926,1848,1843,1833
509936,1856,1841,1835
509946,1855,1847,1835
509956,1855,1840,1829
509966,1853,1840,1829
509976,1851,1839,1833
509986,1853,1843,1835
509996,1854,1841,1838
510006,1851,1835,1835
510016,1856,1837,1838
510026,1861,1841,1843
510036,1855,1843,1841
510046,1865,1843,1853
510056,1870,1850,1859
510066,1871,1855,1867
510076,1872,1857,1874
510086,1872,1862,1884
510096,1876,1863,1881
510106,1878,1861,1893
510116,1882,1869,1895
510126,1879,1867,1894
510136,1877,1869,1887
510146,1875,1863,1886
510156,1873,1862,1886
510166,1874,1863,1885
510176,1871,1857,1872
510186,1867,1854,1871
510196,1858,1856,1867
510206,1856,1854,1860
510216,1857,1844,1852
510226,1858,1845,1847
510236,1853,1841,1841
510246,1848,1842,1837
510256,1848,1840,1838
510266,1852,1840,1827
510276,1843,1840,1829
