timestamp_ms_device,ppg_finger1,ppg_finger2,ppg_finger3
843957,1908,1904,1921
843967,1906,1904,1919
843977,1906,1897,1912
843987,1901,1887,1903
843997,1893,1879,1893
844007,1888,1874,1879
844017,1886,1868,1872
844027,1881,1859,1867
844037,1881,1849,1853
844047,1875,1847,1847
844057,1877,1841,1839
844067,1874,1837,1830
844077,1873,1838,1829
844087,1874,1833,1824
844097,1872,1832,1826
844107,1870,1825,1821
844117,1868,1831,1821
844127,1863,1831,1825
844137,1858,1830,1825
844147,1857,1832,1829
844157,1851,1836,1832
844167,1857,1837,1838
844177,1856,1838,1832
844187,1854,1840,1839
844197,1856,1840,1837
844207,1856,1840,1829
844217,1859,1839,1839
844227,1861,1840,1840
844237,1862,1840,1841
844247,1867,1839,1840
844257,1863,1840,1840
844267,1862,1839,1839
844277,1861,1840,1837
844287,1862,1839,1840
844297,1866,1840,1839
844307,1858,1835,1840
844317,1855,1838,1840
844327,1861,1839,1839
844337,1859,1839,1835
844347,1862,1839,1837
844357,1863,1839,1839
844367,1867,1840,1840
844377,1871,1838,1840
844387,1871,1843,1838
844397,1873,1841,1839
844407,1879,1840,1839
844417,1885,1845,1842
844427,1882,1846,1840
844437,1881,1842,1840
844447,1875,1840,1840
844457,1871,1841,1842
844467,1867,1842,1840
844477,1864,1843,1843
844487,1867,1840,1840
844497,1863,1842,1842
844507,1862,1841,1840
844517,1868,1841,1841
844527,1870,1845,1849
844537,1871,1846,1840
844547,1872,1845,1847
844557,1872,1840,1841
844567,1877,1846,1844
844577,1877,1845,1846
844587,1875,1845,1844
844597,1874,1847,1841
844607,1876,1843,1840
844617,1882,1849,1844
844627,1875,1849,1846
844637,1878,1847,1847
844647,1882,1853,1846
844657,1882,1843,1847
844667,1883,1844,1847
844677,1879,1849,1845
844687,1885,1845,1854
844697,1888,1845,1849
844707,1886,1846,1849
844717,1886,1852,1846
844727,1890,1851,1845
844737,1882,1847,1848
844747,1886,1855,1850
844757,1879,1851,1853
844767,1887,1861,1858
844777,1885,1863,1866
844787,1887,1871,1872
844797,1890,1874,1887
844807,1894,1882,1897
844817,1898,1894,1907
844827,1901,1903,1920
844837,1905,1904,1922
844847,1909,1913,1923
844857,1917,1918,1935
844867,1926,1921,1940
844877,1923,1923,1936
844887,1925,1923,1936
844897,1925,1923,1936
844907,1923,1925,1931
844917,1917,1920,1935
844927,1911,1920,1922
844937,1905,1915,1919
844947,1901,1910,1913
844957,1891,1904,1906
844967,1889,1894,1894
844977,1881,1891,1881
844987,1874,1878,1871
844997,1874,1872,1866
845007,1872,1872,1856
845017,1872,1866,1845
845027,1872,1856,1844
845037,1872,1845,1837
845047,1872,1840,1838
845057,1872,1839,1831
845067,1869,1840,1831
845077,1869,1840,1837
845087,1866,1840,1831
845097,1861,1841,1838
845107,1857,1840,1840
845117,1861,1846,1845
845127,1856,1841,1846
845137,1855,1845,1843
845147,1856,1847,1849
845157,1858,1849,1847
845167,1858,1854,1853
845177,1861,1846,1851
845187,1860,1850,1843
845197,1861,1855,1850
845207,1859,1850,1843
845217,1857,1849,1845
845227,1855,1842,1842
845237,1856,1842,1841
845247,1856,1845,1842
845257,1851,1840,1838
845267,1856,1843,1843
845277,1857,1838,1835
845287,1854,1838,1834
845297,1854,1838,1835
845307,1854,1840,1835
845317,1855,1840,1835
845327,1856,1837,1831
845337,1856,1838,1835
845347,1855,1839,1839
845357,1858,1839,1838
845367,1862,1839,1840
845377,1860,1834,1839
845387,1867,1838,1841
845397,1860,1837,1840
845407,1857,1831,1839
845417,1856,1839,1841
845427,1851,1837,1840
845437,1849,1834,1840
845447,1842,1835,1840
845457,1840,1839,1842
845467,1842,1838,1842
845477,1840,1838,1841
845487,1838,1838,1842
845497,1840,1842,1840
845507,1840,1839,1844
845517,1842,1843,1842
845527,1843,1840,1840
845537,1845,1841,1847
845547,1853,1842,1840
845557,1854,1842,1842
845567,1855,1843,1847
845577,1853,1843,1839
845587,1856,1845,1846
845597,1857,1842,1843
845607,1857,1844,1847
845617,1861,1845,1846
845627,1859,1847,1845
845637,1863,1847,1845
845647,1869,1851,1850
845657,1872,1848,1843
845667,1870,1854,1855
845677,1870,1854,1852
845687,1875,1859,1858
845697,1883,1861,1867
845707,1887,1871,1872
845717,1893,1874,1885
845727,1895,1877,1895
845737,1903,1889,1905
845747,1905,1901,1919
845757,1907,1905,1923
845767,1911,1911,1935
845777,1904,1915,1936
845787,1908,1924,1936
845797,1904,1931,1945
845807,1904,1931,1943
845817,1906,1936,1942
845827,1904,1930,1939
845837,1904,1930,1936
845847,1899,1931,1936
845857,1895,1923,1929
845867,1885,1919,1926
845877,1877,1907,1915
845887,1871,1904,1910
845897,1860,1894,1899
845907,1845,1887,1889
845917,1839,1877,1878
845927,1827,1863,1868
845937,1819,1858,1858
845947,1819,1853,1855
845957,1814,1846,1842
845967,1824,1840,1840
845977,1825,1838,1827
845987,1835,1838,1830
845997,1843,1839,1830
846007,1859,1835,1821
846017,1867,1838,1828
846027,1872,1840,1822
846037,1887,1840,1825
846047,1890,1838,1821
846057,1890,1838,1824
846067,1895,1837,1826
846077,1887,1839,1823
846087,1882,1840,1831
846097,1873,1837,1830
846107,1867,1837,1828
846117,1856,1838,1833
846127,1850,1838,1827
846137,1847,1840,1835
846147,1844,1838,1833
846157,1839,1831,1829
846167,1840,1838,1833
846177,1841,1834,1834
846187,1843,1837,1838
846197,1846,1831,1841
846207,1841,1830,1838
846217,1846,1830,1837
846227,1840,1835,1834
846237,1840,1833,1840
846247,1843,1830,1839
846257,1838,1828,1837
846267,1840,1831,1840
846277,1840,1831,1840
846287,1839,1839,1841
846297,1841,1840,1840
846307,1840,1834,1841
846317,1847,1838,1842
846327,1848,1840,1840
846337,1855,1840,1845
846347,1858,1837,1841
846357,1869,1835,1837
846367,1873,1840,1841
846377,1876,1839,1839
846387,1882,1840,1847
846397,1884,1840,1844
846407,1881,1839,1840
846417,1883,1840,1845
846427,1874,1840,1847
846437,1872,1846,1846
846447,1872,1841,1842
846457,1866,1842,1846
846467,1863,1842,1846
846477,1866,1843,1846
846487,1867,1847,1845
846497,1862,1841,1841
846507,1865,1844,1847
846517,1869,1845,1841
846527,1870,1843,1840
846537,1874,1841,1847
846547,1878,1840,1842
846557,1874,1841,1847
846567,1882,1843,1849
846577,1879,1845,1845
846587,1882,1850,1843
846597,1877,1843,1841
846607,1874,1846,1840
846617,1872,1849,1847
846627,1869,1850,1853
846637,1872,1855,1859
846647,1872,1854,1866
846657,1875,1859,1872
846667,1882,1866,1878
846677,1885,1873,1886
846687,1898,1881,1894
846697,1903,1885,1903
846707,1910,1891,1887
846717,1918,1904,1909
846727,1920,1904,1920
846737,1925,1936,1922
846747,1926,1926,1922
846757,1926,1918,1927
846767,1930,1918,1930
846777,1921,1917,1926
846787,1917,1909,1923
846797,1909,1918,1920
846807,1898,1902,1910
846817,1893,1906,1905
846827,1882,1899,1904
846837,1877,1889,1904
846847,1871,1887,1884
846857,1867,1875,1879
846867,1868,1872,1877
846877,1867,1859,1840
846887,1867,1857,1872
846897,1866,1849,1841
846907,1873,1844,1840
846917,1872,1839,1850
846927,1872,1841,1831
846937,1872,1833,1827
846947,1870,1825,1822
846957,1857,1839,1821
846967,1854,1838,1830
846977,1850,1808,1829
846987,1847,1830,1837
846997,1841,1840,1836
847007,1840,1826,1838
847017,1840,1866,1830
847027,1838,1830,1840
847037,1843,1840,1833
847047,1847,1839,1839
847057,1854,1829,1840
847067,1858,1840,1846
847077,1856,1836,1838
847087,1861,1840,1834
847097,1865,1838,1829
847107,1872,1844,1840
847117,1872,1843,1839
847127,1872,1843,1839
847137,1873,1841,1840
847147,1872,1840,1841
847157,1871,1841,1839
847167,1872,1841,1844
847177,1867,1844,1851
847187,1871,1847,1854
847197,1867,1843,1840
847207,1863,1855,1848
847217,1862,1842,1847
847227,1861,1857,1850
847237,1869,1844,1848
847247,1859,1843,1843
847257,1866,1842,1845
847267,1866,1850,1849
847277,1865,1840,1841
847287,1863,1838,1843
847297,1865,1840,1840
847307,1866,1844,1842
847317,1857,1843,1845
847327,1850,1840,1842
847337,1846,1840,1840
847347,1840,1839,1836
847357,1839,1840,1846
847367,1836,1844,1846
847377,1830,1842,1843
847387,1834,1840,1840
847397,1837,1841,1844
847407,1839,1850,1844
847417,1842,1844,1841
847427,1843,1843,1840
847437,1854,1840,1843
847447,1856,1840,1844
847457,1861,1840,1845
847467,1868,1842,1843
847477,1865,1841,1845
847487,1868,1845,1846
847497,1867,1841,1841
847507,1872,1845,1850
847517,1861,1850,1852
847527,1869,1853,1854
847537,1867,1855,1853
847547,1861,1851,1861
847557,1871,1863,1868
847567,1904,1870,1876
847577,1879,1872,1891
847587,1885,1884,1898
847597,1890,1887,1904
847607,1885,1903,1918
847617,1899,1907,1925
847627,1898,1915,1936
847637,1926,1919,1936
847647,1903,1924,1940
847657,1904,1927,1951
847667,1904,1929,1952
847677,1902,1926,1942
847687,1900,1929,1951
847697,1887,1929,1945
847707,1881,1931,1953
847717,1859,1926,1941
847727,1861,1917,1937
847737,1861,1916,1935
847747,1862,1905,1922
847757,1882,1901,1911
847767,1869,1891,1905
847777,1853,1876,1893
847787,1872,1873,1879
847797,1857,1865,1871
847807,1872,1856,1863
847817,1858,1846,1849
847827,1840,1837,1845
847837,1842,1840,1834
847847,1855,1834,1830
847857,1856,1833,1834
847867,1847,1829,1821
847877,1853,1826,1824
847887,1819,1829,1829
847897,1840,1834,1822
847907,1854,1838,1828
847917,1846,1834,1831
847927,1854,1835,1830
847937,1860,1840,1836
847947,1863,1840,1835
847957,1872,1840,1840
847967,1872,1840,1839
847977,1872,1840,1839
847987,1873,1844,1840
847997,1874,1844,1837
848007,1872,1849,1840
848017,1871,1843,1841
848027,1861,1847,1842
848037,1863,1847,1840
848047,1866,1846,1840
848057,1856,1843,1839
848067,1854,1841,1834
848077,1853,1841,1838
848087,1855,1840,1840
848097,1850,1838,1835
848107,1857,1838,1838
848117,1855,1839,1840
848127,1859,1837,1839
848137,1866,1837,1835
848147,1869,1834,1837
848157,1867,1838,1840
848167,1866,1835,1837
848177,1867,1833,1839
848187,1864,1833,1835
848197,1860,1835,1838
848207,1859,1838,1839
848217,1856,1834,1840
848227,1854,1839,1836
848237,1855,1840,1840
848247,1847,1839,1840
848257,1854,1839,1840
848267,1853,1842,1838
848277,1856,1840,1838
848287,1857,1840,1839
848297,1859,1839,1841
848307,1865,1839,1840
848317,1859,1840,1834
848327,1861,1838,1840
848337,1856,1841,1843
848347,1847,1839,1840
848357,1851,1840,1842
848367,1843,1840,1840
848377,1845,1840,1840
848387,1840,1840,1841
848397,1841,1841,1840
848407,1840,1841,1843
848417,1842,1840,1840
848427,1842,1843,1840
848437,1844,1841,1845
848447,1847,1842,1844
848457,1847,1841,1847
848467,1854,1841,1840
848477,1854,1840,1847
848487,1861,1844,1840
848497,1861,1843,1841
848507,1863,1844,1849
848517,1866,1847,1851
848527,1871,1851,1849
848537,1872,1857,1856
848547,1872,1858,1871
848557,1872,1870,1877
848567,1872,1872,1885
848577,1874,1879,1898
848587,1882,1889,1911
848597,1886,1898,1917
848607,1893,1910,1934
848617,1897,1913,1931
848627,1907,1914,1937
848637,1910,1920,1947
848647,1911,1925,1947
848657,1919,1935,1953
848667,1915,1925,1949
848677,1917,1934,1945
848687,1919,1926,1942
848697,1911,1920,1936
848707,1907,1926,1936
848717,1902,1916,1922
848727,1895,1909,1923
848737,1888,1904,1915
848747,1875,1893,1904
848757,1875,1888,1901
848767,1869,1879,1884
848777,1872,1873,1874
848787,1865,1863,1865
848797,1863,1855,1849
848807,1863,1846,1840
848817,1866,1839,1834
848827,1869,1831,1829
848837,1863,1833,1815
848847,1863,1822,1810
848857,1859,1822,1812
848867,1856,1819,1811
848877,1853,1820,1817
848887,1842,1818,1819
848897,1843,1818,1819
848907,1841,1822,1825
848917,1840,1825,1821
848927,1840,1831,1829
848937,1841,1831,1838
848947,1840,1833,1829
848957,1841,1835,1839
848967,1845,1835,1834
848977,1856,1840,1842
848987,1855,1839,1837
848997,1858,1830,1835
849007,1866,1836,1839
849017,1869,1839,1836
849027,1872,1840,1840
849037,1871,1840,1834
849047,1870,1840,1835
849057,1872,1838,1836
849067,1867,1836,1835
849077,1871,1839,1840
849087,1867,1840,1838
849097,1867,1837,1840
849107,1866,1840,1840
849117,1868,1834,1840
849127,1869,1840,1840
849137,1871,1838,1840
849147,1870,1835,1839
849157,1871,1839,1840
849167,1870,1840,1840
849177,1867,1840,1838
849187,1863,1840,1839
849197,1857,1840,1837
849207,1862,1840,1841
849217,1856,1840,1837
849227,1856,1843,1840
849237,1854,1842,1841
849247,1847,1843,1840
849257,1851,1845,1844
849267,1855,1839,1840
849277,1856,1842,1843
849287,1854,1843,1840
849297,1855,1840,1837
849307,1858,1842,1846
849317,1859,1840,1841
849327,1859,1847,1844
849337,1862,1843,1849
849347,1855,1842,1839
849357,1856,1842,1840
849367,1859,1840,1842
849377,1861,1843,1846
849387,1858,1840,1841
849397,1861,1841,1840
849407,1865,1846,1846
849417,1862,1842,1846
849427,1867,1850,1855
849437,1867,1846,1841
849447,1868,1846,1847
849457,1875,1851,1853
849467,1878,1849,1861
849477,1875,1852,1863
849487,1884,1855,1869
849497,1886,1859,1874
849507,1886,1871,1887
849517,1890,1877,1902
849527,1891,1885,1911
849537,1893,1898,1918
849547,1897,1904,1927
849557,1898,1904,1934
849567,1894,1907,1936
849577,1901,1911,1942
849587,1898,1916,1939
849597,1891,1917,1938
849607,1897,1918,1940
849617,1891,1911,1936
849627,1893,1910,1935
849637,1891,1907,1925
849647,1887,1904,1922
849657,1889,1901,1911
849667,1889,1895,1904
849677,1890,1888,1889
849687,1888,1872,1875
849697,1891,1871,1869
849707,1885,1861,1856
849717,1882,1853,1842
849727,1877,1846,1839
849737,1872,1842,1830
849747,1868,1839,1827
849757,1863,1836,1821
849767,1856,1834,1819
849777,1855,1833,1819
849787,1847,1837,1821
849797,1851,1831,1819
849807,1846,1835,1822
849817,1845,1831,1822
849827,1842,1830,1825
849837,1843,1833,1827
849847,1841,1830,1833
849857,1842,1839,1840
849867,1840,1840,1838
849877,1842,1840,1839
849887,1843,1837,1838
849897,1842,1840,1840
849907,1844,1841,1838
849917,1849,1841,1837
849927,1849,1840,1840
849937,1855,1840,1838
849947,1862,1838,1836
849957,1865,1845,1842
849967,1872,1840,1840
849977,1874,1840,1841
849987,1874,1839,1840
849997,1879,1837,1839
850007,1883,1840,1831
850017,1882,1837,1840
850027,1876,1840,1837
850037,1870,1840,1838
850047,1871,1840,1839
850057,1872,1840,1841
850067,1869,1838,1840
850077,1869,1840,1841
850087,1869,1838,1834
850097,1869,1841,1841
850107,1872,1840,1845
850117,1872,1841,1837
850127,1883,1842,1840
850137,1874,1839,1836
850147,1876,1845,1841
850157,1874,1842,1844
850167,1875,1843,1845
850177,1874,1849,1840
850187,1873,1842,1840
850197,1875,1843,1845
850207,1872,1840,1842
850217,1867,1842,1840
850227,1863,1843,1841
850237,1858,1845,1840
850247,1851,1843,1843
850257,1847,1846,1843
850267,1845,1840,1843
850277,1845,1844,1843
850287,1843,1841,1845
850297,1851,1843,1843
850307,1854,1847,1845
850317,1855,1849,1841
850327,1857,1843,1846
850337,1856,1846,1845
850347,1861,1846,1845
850357,1870,1850,1845
850367,1866,1845,1846
850377,1870,1847,1845
850387,1876,1850,1847
850397,1882,1850,1852
850407,1881,1852,1847
850417,1889,1850,1850
850427,1895,1857,1854
850437,1894,1859,1859
850447,1899,1862,1870
850457,1903,1868,1872
850467,1905,1875,1878
850477,1909,1879,1894
850487,1911,1886,1898
850497,1919,1901,1907
850507,1922,1899,1917
850517,1920,1903,1920
850527,1926,1904,1925
850537,1924,1907,1920
850547,1922,1915,1922
850557,1915,1910,1924
850567,1904,1906,1921
850577,1904,1905,1915
850587,1890,1905,1907
850597,1874,1900,1904
850607,1872,1893,1892
850617,1859,1885,1879
850627,1847,1875,1872
850637,1840,1872,1861
850647,1835,1869,1850
850657,1824,1859,1845
850667,1821,1850,1840
850677,1815,1847,1834
850687,1810,1842,1831
850697,1815,1840,1836
850707,1815,1840,1834
850717,1819,1841,1831
850727,1825,1840,1831
850737,1830,1840,1835
850747,1839,1843,1840
850757,1843,1843,1841
850767,1850,1847,1843
850777,1857,1843,1846
850787,1860,1849,1849
850797,1870,1852,1849
850807,1866,1853,1851
850817,1873,1852,1849
850827,1873,1855,1851
850837,1872,1853,1851
850847,1868,1850,1853
850857,1866,1851,1854
850867,1863,1849,1847
850877,1867,1848,1846
850887,1859,1844,1849
850897,1859,1845,1845
850907,1855,1845,1853
850917,1858,1849,1851
850927,1856,1845,1852
850937,1857,1844,1849
850947,1854,1842,1841
850957,1851,1841,1845
850967,1845,1842,1842
850977,1841,1842,1847
850987,1840,1840,1841
850997,1839,1841,1843
851007,1834,1840,1842
851017,1833,1840,1840
851027,1830,1841,1840
851037,1825,1840,1842
851047,1823,1840,1843
851057,1825,1840,1845
851067,1824,1842,1840
851077,1823,1842,1842
851087,1829,1840,1841
851097,1825,1840,1846
851107,1829,1841,1840
851117,1837,1840,1843
851127,1839,1842,1847
851137,1840,1842,1846
851147,1843,1842,1847
851157,1848,1846,1849
851167,1853,1843,1847
851177,1855,1845,1847
851187,1863,1850,1847
851197,1860,1846,1847
851207,1863,1846,1850
851217,1859,1843,1845
851227,1868,1847,1850
851237,1861,1845,1854
851247,1865,1847,1850
851257,1866,1847,1849
851267,1863,1843,1849
851277,1863,1845,1855
851287,1863,1847,1852
851297,1862,1850,1855
851307,1862,1853,1859
851317,1859,1856,1861
851327,1867,1857,1873
851337,1870,1861,1879
851347,1869,1868,1892
851357,1872,1879,1899
851367,1874,1886,1915
851377,1874,1892,1924
851387,1884,1901,1936
851397,1886,1907,1938
851407,1888,1914,1942
851417,1895,1919,1951
851427,1894,1919,1952
851437,1892,1920,1954
851447,1899,1925,1950
851457,1902,1925,1947
851467,1900,1920,1942
851477,1901,1919,1936
851487,1902,1909,1923
851497,1893,1905,1918
851507,1889,1902,1907
851517,1883,1898,1895
851527,1877,1885,1882
851537,1872,1874,1873
851547,1867,1871,1861
851557,1866,1859,1854
851567,1863,1856,1843
851577,1855,1852,1838
851587,1851,1841,1829
851597,1851,1838,1830
851607,1851,1839,1825
851617,1853,1839,1819
851627,1847,1835,1824
851637,1854,1831,1821
851647,1855,1834,1821
851657,1855,1834,1828
851667,1859,1834,1830
851677,1861,1838,1833
851687,1861,1839,1831
851697,1862,1838,1840
851707,1869,1838,1836
851717,1872,1840,1840
851727,1872,1841,1842
851737,1875,1840,1840
851747,1875,1841,1839
851757,1874,1841,1841
851767,1873,1840,1840
851777,1872,1840,1840
851787,1872,1840,1841
851797,1872,1840,1840
851807,1871,1840,1837
851817,1872,1839,1839
851827,1871,1839,1838
851837,1870,1838,1835
851847,1867,1835,1840
851857,1867,1840,1836
851867,1867,1840,1840
851877,1862,1840,1839
851887,1859,1840,1840
851897,1856,1840,1840
851907,1859,1840,1840
851917,1858,1840,1841
851927,1856,1842,1841
851937,1861,1840,1840
851947,1865,1839,1840
851957,1867,1841,1840
851967,1866,1840,1843
851977,1867,1840,1840
851987,1866,1840,1842
851997,1865,1840,1842
852007,1867,1842,1840
852017,1865,1840,1841
852027,1867,1840,1840
852037,1869,1841,1840
852047,1871,1842,1841
852057,1872,1840,1840
852067,1872,1840,1842
852077,1872,1840,1840
852087,1876,1842,1841
852097,1877,1840,1841
852107,1878,1843,1841
852117,1885,1847,1844
852127,1885,1845,1847
852137,1887,1843,1842
852147,1888,1851,1843
852157,1890,1847,1845
852167,1894,1843,1852
852177,1892,1847,1847
852187,1890,1847,1845
852197,1886,1850,1845
852207,1889,1853,1845
852217,1890,1849,1847
852227,1889,1851,1847
852237,1891,1851,1849
852247,1890,1850,1843
852257,1891,1849,1850
852267,1894,1855,1849
852277,1891,1861,1857
852287,1898,1866,1862
852297,1903,1870,1872
852307,1904,1877,1883
852317,1905,1887,1896
852327,1906,1895,1906
852337,1909,1906,1921
852347,1907,1915,1935
852357,1910,1921,1947
852367,1909,1929,1952
852377,1909,1934,1954
852387,1905,1936,1959
852397,1903,1939,1968
852407,1895,1942,1963
852417,1888,1941,1961
852427,1889,1936,1954
852437,1884,1938,1948
852447,1875,1930,1936
852457,1879,1921,1931
852467,1872,1917,1918
852477,1870,1907,1905
852487,1867,1894,1900
852497,1861,1885,1877
852507,1859,1872,1872
852517,1859,1863,1860
852527,1861,1855,1842
852537,1857,1844,1836
852547,1857,1839,1827
852557,1857,1837,1825
852567,1858,1829,1815
852577,1856,1825,1813
852587,1856,1825,1814
852597,1856,1824,1810
852607,1859,1822,1814
852617,1862,1824,1815
852627,1857,1825,1823
852637,1863,1833,1823
852647,1859,1829,1826
852657,1858,1834,1830
852667,1861,1837,1834
852677,1866,1840,1840
852687,1868,1840,1840
852697,1870,1840,1840
852707,1866,1841,1840
852717,1871,1840,1842
852727,1871,1843,1844
852737,1872,1843,1840
852747,1870,1840,1841
852757,1870,1840,1842
852767,1863,1840,1840
852777,1862,1837,1840
852787,1856,1837,1840
852797,1853,1833,1840
852807,1851,1837,1840
852817,1843,1837,1840
852827,1842,1835,1837
852837,1845,1838,1839
852847,1841,1839,1839
852857,1844,1838,1839
852867,1850,1839,1840
852877,1851,1839,1840
852887,1846,1839,1846
852897,1854,1840,1826
852907,1854,1839,1853
852917,1855,1840,1837
852927,1855,1840,1840
852937,1846,1840,1838
852947,1849,1841,1841
852957,1847,1839,1842
852967,1846,1841,1857
852977,1844,1836,1846
852987,1841,1834,1831
852997,1840,1835,1840
853007,1840,1839,1820
853017,1840,1839,1850
853027,1840,1840,1842
853037,1838,1841,1843
853047,1837,1835,1847
853057,1837,1840,1843
853067,1840,1843,1843
853077,1840,1827,1853
853087,1840,1840,1840
853097,1840,1842,1842
853107,1846,1838,1842
853117,1851,1840,1845
853127,1842,1861,1850
853137,1847,1841,1842
853147,1851,1842,1839
853157,1851,1830,1843
853167,1850,1846,1837
853177,1848,1850,1854
853187,1854,1850,1865
853197,1851,1845,1855
853207,1852,1845,1849
853217,1847,1857,1859
853227,1853,1856,1857
853237,1859,1858,1870
853247,1857,1879,1873
853257,1860,1883,1872
853267,1869,1870,1894
853277,1872,1867,1920
853287,1874,1902,1918
853297,1879,1904,1908
853307,1886,1926,1938
853317,1893,1904,1947
853327,1899,1927,1947
853337,1904,1927,1951
853347,1904,1934,1952
853357,1909,1933,1954
853367,1914,1927,1951
853377,1914,1930,1943
853387,1911,1932,1941
853397,1909,1926,1935
853407,1905,1906,1920
853417,1904,1905,1915
853427,1899,1899,1903
853437,1891,1889,1895
853447,1879,1872,1858
853457,1873,1861,1870
853467,1869,1853,1858
853477,1857,1872,1851
853487,1847,1840,1841
853497,1840,1825,1833
853507,1834,1829,1829
853517,1834,1822,1824
853527,1824,1829,1820
853537,1820,1825,1817
853547,1824,1820,1823
853557,1819,1821,1823
853567,1828,1823,1827
853577,1830,1827,1827
853587,1833,1825,1839
853597,1838,1826,1834
853607,1840,1828,1834
853617,1842,1840,1840
853627,1846,1835,1833
853637,1849,1839,1841
853647,1854,1842,1840
853657,1854,1840,1840
853667,1859,1846,1843
853677,1859,1840,1841
853687,1860,1842,1840
853697,1870,1840,1840
853707,1870,1841,1841
853717,1872,1842,1843
853727,1875,1840,1840
853737,1882,1847,1841
853747,1883,1846,1840
853757,1890,1839,1846
853767,1888,1841,1843
853777,1891,1840,1842
853787,1889,1841,1849
853797,1892,1837,1840
853807,1885,1841,1840
853817,1874,1842,1845
853827,1877,1840,1844
853837,1889,1841,1846
853847,1863,1840,1841
853857,1873,1845,1845
853867,1875,1840,1847
853877,1877,1840,1846
853887,1863,1839,1840
853897,1863,1839,1844
853907,1856,1840,1836
853917,1866,1840,1846
853927,1861,1840,1842
853937,1868,1840,1840
853947,1854,1840,1841
853957,1847,1840,1841
853967,1855,1842,1842
853977,1845,1840,1840
853987,1835,1841,1843
853997,1840,1840,1840
854007,1840,1840,1844
854017,1853,1840,1843
854027,1845,1840,1843
854037,1827,1840,1840
854047,1838,1841,1845
854057,1841,1844,1842
854067,1863,1843,1851
854077,1849,1845,1843
854087,1863,1842,1841
854097,1849,1840,1840
854107,1872,1840,1840
854117,1861,1844,1849
854127,1870,1843,1845
854137,1866,1843,1849
854147,1857,1842,1840
854157,1859,1847,1847
854167,1870,1849,1845
854177,1875,1850,1846
854187,1856,1857,1855
854197,1876,1856,1863
854207,1887,1863,1875
854217,1890,1871,1891
854227,1892,1877,1899
854237,1903,1883,1909
854247,1904,1891,1920
854257,1939,1899,1936
854267,1920,1909,1943
854277,1924,1905,1939
854287,1933,1916,1952
854297,1929,1919,1946
854307,1935,1924,1953
854317,1937,1930,1957
854327,1900,1923,1943
854337,1919,1930,1942
854347,1918,1922,1936
854357,1910,1918,1933
854367,1904,1913,1923
854377,1899,1904,1909
854387,1889,1898,1902
854397,1884,1883,1888
854407,1879,1878,1872
854417,1875,1863,1863
854427,1872,1858,1852
854437,1866,1851,1842
854447,1863,1841,1833
854457,1862,1840,1830
854467,1857,1835,1827
854477,1856,1831,1824
854487,1855,1828,1819
854497,1853,1830,1817
854507,1856,1835,1824
854517,1853,1830,1824
854527,1851,1826,1822
854537,1845,1836,1830
854547,1840,1831,1829
854557,1850,1838,1837
854567,1851,1840,1835
854577,1847,1837,1834
854587,1855,1840,1836
854597,1855,1840,1838
854607,1855,1840,1842
854617,1859,1840,1840
854627,1857,1840,1838
854637,1856,1840,1840
854647,1857,1839,1839
854657,1857,1840,1838
854667,1851,1841,1840
854677,1851,1839,1837
854687,1849,1840,1840
854697,1845,1840,1838
854707,1847,1841,1840
854717,1850,1842,1840
854727,1849,1838,1835
854737,1850,1840,1840
854747,1857,1840,1840
854757,1859,1840,1840
854767,1861,1835,1838
854777,1858,1840,1837
854787,1867,1840,1840
854797,1870,1840,1840
854807,1872,1840,1841
854817,1872,1842,1841
854827,1874,1838,1840
854837,1875,1841,1840
854847,1875,1840,1840
854857,1878,1841,1843
854867,1883,1840,1840
854877,1885,1840,1842
854887,1889,1840,1849
854897,1889,1840,1841
854907,1893,1846,1837
854917,1890,1843,1841
854927,1888,1844,1840
854937,1886,1847,1840
854947,1879,1841,1841
854957,1877,1843,1845
854967,1870,1845,1842
854977,1867,1840,1843
854987,1861,1845,1845
854997,1854,1845,1843
855007,1854,1845,1846
855017,1853,1845,1843
855027,1850,1843,1840
855037,1852,1843,1847
855047,1846,1845,1840
855057,1847,1847,1840
855067,1849,1842,1842
855077,1848,1847,1843
855087,1854,1845,1843
855097,1851,1843,1840
855107,1854,1843,1850
855117,1853,1841,1841
855127,1857,1845,1847
855137,1856,1850,1850
855147,1854,1855,1850
855157,1854,1854,1855
855167,1854,1853,1858
855177,1856,1856,1861
855187,1856,1860,1867
855197,1858,1872,1877
855207,1867,1872,1890
855217,1870,1875,1895
855227,1875,1889,1904
855237,1883,1893,1917
855247,1889,1900,1919
855257,1900,1902,1924
855267,1901,1906,1930
855277,1904,1905,1931
855287,1910,1908,1933
855297,1907,1904,1930
855307,1915,1905,1936
855317,1911,1904,1925
855327,1914,1905,1920
855337,1911,1909,1911
855347,1904,1900,1904
855357,1903,1894,1901
855367,1900,1890,1891
855377,1897,1885,1883
855387,1891,1875,1874
855397,1884,1869,1861
855407,1879,1863,1855
855417,1872,1857,1846
855427,1867,1854,1835
855437,1862,1846,1831
855447,1857,1842,1830
855457,1855,1840,1824
855467,1850,1840,1817
855477,1854,1837,1817
855487,1853,1837,1822
855497,1853,1835,1821
855507,1856,1840,1829
855517,1856,1835,1826
855527,1863,1840,1837
855537,1857,1842,1838
855547,1861,1840,1834
855557,1869,1840,1839
855567,1869,1840,1840
855577,1866,1842,1840
855587,1867,1840,1842
855597,1861,1841,1841
855607,1859,1840,1843
855617,1858,1841,1841
855627,1856,1841,1843
855637,1855,1842,1840
855647,1851,1840,1840
855657,1854,1844,1840
855667,1854,1840,1842
855677,1851,1841,1840
855687,1857,1840,1840
855697,1855,1841,1840
855707,1856,1840,1840
855717,1857,1840,1839
855727,1856,1837,1839
855737,1859,1841,1841
855747,1860,1841,1841
855757,1860,1842,1845
855767,1866,1840,1840
855777,1865,1840,1841
855787,1862,1843,1843
855797,1865,1840,1840
855807,1867,1847,1844
855817,1866,1842,1845
855827,1871,1843,1842
855837,1867,1846,1849
855847,1871,1847,1843
855857,1870,1849,1844
855867,1871,1841,1847
855877,1867,1845,1851
855887,1872,1847,1846
855897,1872,1843,1847
855907,1872,1846,1850
855917,1874,1847,1845
855927,1875,1847,1845
855937,1875,1850,1852
855947,1872,1850,1850
855957,1882,1849,1847
855967,1882,1847,1852
855977,1878,1851,1850
855987,1882,1850,1853
855997,1881,1847,1851
856007,1882,1847,1845
856017,1877,1850,1847
856027,1874,1850,1847
856037,1877,1847,1853
856047,1874,1847,1849
856057,1872,1850,1852
856067,1872,1854,1855
856077,1873,1855,1856
856087,1882,1857,1866
856097,1883,1863,1869
856107,1893,1863,1873
856117,1895,1872,1885
856127,1904,1878,1890
856137,1912,1883,1903
856147,1921,1895,1914
856157,1934,1899,1921
856167,1936,1904,1923
856177,1939,1910,1930
856187,1947,1918,1930
856197,1949,1919,1930
856207,1943,1921,1933
856217,1936,1919,1934
856227,1930,1918,1929
856237,1921,1914,1927
856247,1909,1905,1913
856257,1899,1907,1916
856267,1883,1898,1899
856277,1873,1892,1892
856287,1866,1875,1882
856297,1851,1871,1863
856307,1847,1861,1859
856317,1840,1856,1847
856327,1840,1856,1843
856337,1839,1840,1840
856347,1840,1840,1838
856357,1840,1840,1831
856367,1842,1834,1835
856377,1853,1837,1839
856387,1855,1835,1839
856397,1857,1840,1839
856407,1868,1839,1840
856417,1873,1840,1839
856427,1879,1843,1843
856437,1884,1847,1846
856447,1888,1853,1856
856457,1896,1856,1858
856467,1895,1855,1856
856477,1898,1856,1863
856487,1893,1855,1858
856497,1891,1856,1860
856507,1889,1862,1863
856517,1888,1855,1858
856527,1884,1856,1858
856537,1878,1853,1853
856547,1875,1850,1856
856557,1873,1855,1858
856567,1875,1855,1855
856577,1872,1853,1855
856587,1872,1845,1856
856597,1872,1846,1854
856607,1873,1846,1859
856617,1874,1849,1855
856627,1875,1850,1854
856637,1872,1848,1854
856647,1874,1850,1858
856657,1874,1850,1855
856667,1870,1843,1856
856677,1870,1850,1855
856687,1871,1846,1850
856697,1862,1847,1854
856707,1860,1850,1851
856717,1858,1850,1847
856727,1859,1845,1852
856737,1858,1846,1847
856747,1859,1847,1854
856757,1865,1847,1846
856767,1861,1850,1850
856777,1859,1851,1848
856787,1862,1850,1853
856797,1861,1851,1853
856807,1862,1847,1850
856817,1863,1850,1851
856827,1859,1853,1850
856837,1866,1846,1851
856847,1866,1843,1847
856857,1867,1847,1853
856867,1872,1849,1851
856877,1872,1851,1853
856887,1877,1845,1853
856897,1872,1850,1850
856907,1877,1853,1854
856917,1878,1853,1851
856927,1879,1853,1849
856937,1878,1851,1847
856947,1878,1850,1846
856957,1878,1847,1846
856967,1874,1849,1846
856977,1873,1846,1853
856987,1872,1850,1853
856997,1872,1854,1854
857007,1872,1853,1867
857017,1870,1863,1878
857027,1872,1871,1891
857037,1873,1874,1904
857047,1875,1887,1921
857057,1879,1899,1937
857067,1883,1904,1952
857077,1885,1917,1962
857087,1886,1924,1974
857097,1888,1925,1979
857107,1888,1934,1984
857117,1889,1936,1987
857127,1890,1935,1987
857137,1891,1936,1984
857147,1891,1933,1982
857157,1891,1927,1975
857167,1892,1924,1969
857177,1894,1915,1959
857187,1894,1911,1951
857197,1894,1905,1937
857207,1891,1894,1935
857217,1888,1893,1920
857227,1885,1881,1904
857237,1883,1878,1899
857247,1882,1872,1888
857257,1874,1867,1874
857267,1875,1857,1866
857277,1873,1853,1858
857287,1872,1848,1844
857297,1872,1841,1840
857307,1872,1841,1842
857317,1872,1840,1831
857327,1872,1838,1829
857337,1872,1839,1828
857347,1876,1838,1829
857357,1873,1840,1833
857367,1872,1840,1838
857377,1871,1840,1839
857387,1871,1841,1833
857397,1872,1840,1839
857407,1871,1844,1839
857417,1872,1841,1838
857427,1872,1843,1840
857437,1872,1842,1839
857447,1873,1840,1837
857457,1875,1841,1831
857467,1874,1837,1826
857477,1879,1840,1823
857487,1883,1837,1818
857497,1883,1835,1810
857507,1883,1831,1808
857517,1877,1831,1807
857527,1877,1835,1807
857537,1877,1833,1803
857547,1872,1830,1806
857557,1867,1826,1807
857567,1865,1828,1808
857577,1863,1826,1808
857587,1856,1828,1811
857597,1856,1830,1810
857607,1847,1827,1813
857617,1853,1825,1815
857627,1845,1826,1821
857637,1842,1827,1825
857647,1843,1824,1824
857657,1840,1823,1826
857667,1844,1825,1829
857677,1842,1831,1833
857687,1842,1831,1834
857697,1843,1834,1835
857707,1846,1829,1829
857717,1845,1833,1831
857727,1854,1833,1839
857737,1853,1839,1834
857747,1858,1835,1844
857757,1859,1842,1838
857768,1863,1840,1840
857778,1866,1841,1841
857788,1872,1842,1839
857798,1872,1842,1840
857808,1872,1843,1840
857818,1873,1840,1834
857828,1872,1841,1837
857838,1870,1841,1835
857848,1867,1840,1839
857858,1861,1840,1840
857868,1853,1840,1835
857878,1852,1840,1838
857888,1847,1841,1840
857898,1850,1840,1840
857908,1845,1842,1839
857918,1850,1845,1838
857928,1854,1847,1842
857938,1854,1850,1851
857948,1856,1855,1859
857958,1856,1865,1872
857968,1863,1867,1875
857978,1867,1872,1890
857988,1872,1883,1904
857998,1875,1889,1915
858008,1879,1898,1921
858018,1881,1904,1925
858028,1889,1908,1936
858038,1893,1915,1936
858048,1895,1919,1939
858058,1901,1919,1936
858068,1903,1919,1936
858078,1898,1915,1937
858088,1898,1911,1934
858098,1897,1911,1929
858108,1893,1901,1920
858118,1888,1899,1906
858128,1889,1893,1900
858138,1883,1882,1889
858148,1879,1878,1883
858158,1877,1871,1863
858168,1872,1861,1850
858178,1867,1853,1840
858188,1861,1847,1836
858198,1856,1843,1831
858208,1853,1840,1821
858218,1845,1838,1815
858228,1847,1837,1808
858238,1841,1831,1811
858248,1840,1834,1815
858258,1842,1830,1813
858268,1840,1830,1815
858278,1842,1830,1819
858288,1840,1830,1825
858298,1844,1835,1825
858308,1841,1839,1826
858318,1846,1829,1829
858328,1854,1838,1838
858338,1854,1838,1835
858348,1854,1840,1838
858358,1854,1840,1834
858368,1857,1839,1836
858378,1860,1839,1839
858388,1861,1842,1838
858398,1866,1843,1842
858408,1862,1840,1838
858418,1865,1846,1839
858428,1860,1851,1843
858438,1862,1845,1841
858448,1858,1843,1841
858458,1857,1841,1837
858468,1858,1840,1840
858478,1855,1841,1841
858488,1853,1840,1837
858498,1856,1839,1841
858508,1856,1839,1838
858518,1857,1837,1838
858528,1861,1840,1840
858538,1856,1831,1838
858548,1861,1840,1837
858558,1854,1836,1834
858568,1858,1838,1834
858578,1853,1840,1840
858588,1851,1836,1840
858598,1850,1837,1840
858608,1843,1833,1832
858618,1841,1835,1839
858628,1843,1838,1840
858638,1840,1833,1840
858648,1840,1840,1840
858658,1842,1840,1839
858668,1847,1840,1840
858678,1851,1845,1840
858688,1856,1841,1840
858698,1856,1842,1843
858708,1856,1846,1840
858718,1865,1845,1846
858728,1866,1845,1850
858738,1862,1845,1845
858748,1870,1851,1849
858758,1866,1843,1843
858768,1870,1850,1847
858778,1869,1853,1849
858788,1870,1847,1851
858798,1865,1843,1850
858808,1866,1841,1845
858818,1865,1850,1846
858828,1866,1853,1848
858838,1862,1849,1852
858848,1862,1853,1854
858858,1867,1853,1855
858868,1867,1865,1866
858878,1867,1866,1869
858888,1868,1870,1875
858898,1874,1874,1899
858908,1873,1883,1904
858918,1883,1893,1919
858928,1882,1902,1927
858938,1887,1904,1936
858948,1885,1910,1940
858958,1886,1918,1950
858968,1889,1921,1954
858978,1888,1921,1952
858988,1888,1920,1945
858998,1887,1919,1943
859008,1879,1910,1941
859018,1886,1907,1934
859028,1875,1904,1922
859038,1872,1894,1913
859048,1872,1886,1903
859058,1867,1882,1887
859068,1869,1873,1875
859078,1861,1864,1860
859088,1857,1857,1856
859098,1854,1852,1841
859108,1846,1841,1838
859118,1849,1842,1829
859128,1843,1840,1823
859138,1840,1831,1822
859148,1841,1835,1824
859158,1842,1829,1819
859168,1840,1829,1822
859178,1840,1831,1822
859188,1842,1827,1826
859198,1842,1831,1834
859208,1851,1840,1834
859218,1854,1835,1807
859228,1861,1840,1841
859238,1858,1843,1848
859248,1868,1842,1840
859258,1870,1840,1839
859268,1874,1852,1839
859278,1871,1851,1840
859288,1871,1850,1840
859298,1867,1840,1844
859308,1872,1838,1840
859318,1865,1843,1839
859328,1865,1861,1835
859338,1863,1842,1835
859348,1858,1851,1838
859358,1857,1840,1840
859368,1861,1846,1840
859378,1858,1857,1840
859388,1856,1839,1837
859398,1856,1845,1835
859408,1857,1870,1833
859418,1863,1850,1825
859428,1860,1849,1843
859438,1866,1854,1840
859448,1871,1843,1834
859458,1872,1847,1841
859468,1873,1856,1844
859478,1873,1842,1831
859488,1873,1846,1845
859498,1875,1851,1853
859508,1873,1867,1857
859518,1874,1820,1849
859528,1871,1829,1828
859538,1873,1852,1838
859548,1868,1847,1839
859558,1872,1840,1827
859568,1870,1852,1847
859578,1869,1840,1840
859588,1872,1837,1821
859598,1872,1849,1841
859608,1872,1821,1840
859618,1873,1843,1840
859628,1874,1835,1842
859638,1873,1843,1843
859648,1876,1843,1843
859658,1875,1845,1840
859668,1874,1846,1847
859678,1877,1847,1846
859688,1877,1846,1845
859698,1877,1846,1876
859708,1875,1851,1847
859718,1875,1845,1855
859728,1874,1847,1846
859738,1882,1846,1851
859748,1887,1837,1851
859758,1888,1851,1855
859768,1890,1854,1856
859778,1895,1854,1857
859788,1899,1858,1864
859798,1898,1863,1874
859808,1898,1874,1884
859818,1902,1876,1894
859828,1901,1887,1904
859838,1897,1894,1918
859848,1894,1903,1933
859858,1895,1907,1936
859868,1895,1919,1949
859878,1889,1919,1950
859888,1887,1921,1953
859898,1892,1936,1963
859908,1890,1931,1959
859918,1898,1927,1953
859928,1901,1927,1947
859938,1904,1929,1941
859948,1904,1924,1948
859958,1904,1919,1935
859968,1904,1911,1927
859978,1904,1903,1920
859988,1904,1898,1909
859998,1904,1888,1901
860008,1904,1877,1888
860018,1901,1872,1877
860028,1899,1865,1859
860038,1895,1858,1854
860048,1903,1857,1842
860058,1899,1856,1840
860068,1895,1851,1841
860078,1897,1849,1835
860088,1895,1843,1834
860098,1886,1840,1838
860108,1889,1840,1831
860118,1890,1840,1831
860128,1883,1837,1829
860138,1893,1837,1834
860148,1887,1843,1835
860158,1884,1835,1831
860168,1878,1842,1837
860178,1882,1842,1832
860188,1884,1840,1839
860198,1885,1844,1840
860208,1888,1842,1835
860218,1878,1846,1841
860228,1862,1846,1833
860238,1882,1847,1843
860248,1881,1846,1841
860258,1877,1845,1839
860268,1893,1840,1839
860278,1871,1841,1835
860288,1870,1840,1838
860298,1865,1840,1835
860308,1859,1840,1829
860318,1867,1838,1834
860328,1854,1833,1827
860338,1858,1839,1835
860348,1862,1838,1833
860358,1855,1839,1840
860368,1872,1835,1838
860378,1857,1842,1839
860388,1853,1840,1840
860398,1859,1841,1840
860408,1866,1840,1836
860418,1871,1840,1840
860428,1866,1840,1840
860438,1874,1841,1841
860448,1871,1841,1840
860458,1867,1838,1835
860468,1881,1841,1841
860478,1859,1840,1840
860488,1872,1846,1840
860498,1869,1843,1843
860508,1855,1845,1840
860518,1856,1844,1844
860528,1866,1843,1840
860538,1865,1850,1846
860548,1863,1847,1843
860558,1867,1845,1845
860568,1866,1844,1850
860578,1868,1842,1845
860588,1865,1840,1844
860598,1866,1840,1841
860608,1862,1840,1840
860618,1862,1839,1840
860628,1871,1839,1841
860638,1858,1841,1841
860648,1858,1840,1841
860658,1851,1841,1840
860668,1855,1843,1845
860678,1825,1843,1849
860688,1856,1849,1850
860698,1854,1854,1851
860708,1862,1855,1859
860718,1870,1862,1867
860728,1871,1872,1877
860738,1872,1883,1890
860748,1877,1891,1903
860758,1877,1902,1914
860768,1883,1906,1927
860778,1883,1915,1934
860788,1889,1930,1942
860798,1883,1932,1943
860808,1878,1936,1936
860818,1879,1936,1947
860828,1875,1931,1941
860838,1873,1934,1941
860848,1872,1923,1935
860858,1872,1923,1925
860868,1870,1911,1918
860878,1867,1897,1905
860888,1870,1894,1904
860898,1866,1877,1885
860908,1863,1872,1872
860918,1866,1861,1861
860928,1865,1847,1849
860938,1859,1843,1842
860948,1862,1835,1835
860958,1857,1829,1830
860968,1859,1825,1830
860978,1854,1825,1826
860988,1853,1827,1827
860998,1853,1822,1822
861008,1849,1823,1822
861018,1854,1834,1824
861028,1856,1827,1829
861038,1859,1835,1837
861048,1867,1838,1838
861058,1868,1840,1837
861068,1875,1841,1841
861078,1872,1847,1847
861088,1878,1851,1849
861098,1881,1850,1846
861108,1877,1856,1855
861118,1882,1858,1859
861128,1878,1860,1856
861138,1877,1858,1857
861148,1874,1854,1855
861158,1875,1854,1851
861168,1878,1853,1854
861178,1875,1850,1852
861188,1874,1851,1853
861198,1872,1850,1847
861208,1869,1854,1847
861218,1872,1847,1846
861228,1870,1840,1840
861238,1870,1843,1840
861248,1867,1842,1837
861258,1863,1840,1839
861268,1862,1842,1840
861278,1869,1840,1833
861288,1858,1840,1840
861298,1859,1838,1840
861308,1858,1840,1840
861318,1855,1839,1840
861328,1850,1838,1835
861338,1851,1840,1841
861348,1841,1839,1839
861358,1840,1839,1840
861368,1840,1840,1841
861378,1839,1838,1837
861388,1835,1838,1840
861398,1834,1835,1837
861408,1837,1838,1840
861418,1835,1839,1841
861428,1824,1829,1840
861438,1822,1837,1840
861448,1810,1837,1840
861458,1808,1840,1840
861468,1803,1840,1842
861478,1803,1840,1837
861488,1805,1840,1841
861498,1808,1838,1839
861508,1818,1840,1840
861518,1822,1841,1849
861528,1836,1840,1846
861538,1845,1843,1851
861548,1857,1842,1851
861558,1871,1850,1856
861568,1875,1851,1857
861578,1887,1854,1861
861588,1895,1860,1871
861598,1891,1863,1874
861608,1895,1873,1893
861618,1902,1886,1904
861628,1900,1897,1917
861638,1901,1904,1934
861648,1901,1909,1937
861658,1901,1920,1945
861668,1898,1927,1954
861678,1895,1932,1952
861688,1891,1935,1965
861698,1897,1936,1962
861708,1898,1936,1964
861718,1901,1937,1959
861728,1899,1930,1954
861738,1898,1927,1946
861748,1899,1920,1941
861758,1901,1916,1935
861768,1898,1907,1925
861778,1890,1895,1910
861788,1881,1881,1903
861798,1886,1875,1890
861808,1879,1867,1876
861818,1874,1857,1866
861828,1877,1853,1856
861838,1876,1846,1845
861848,1872,1839,1840
861858,1874,1839,1838
861868,1873,1834,1837
861878,1873,1826,1823
861888,1878,1826,1829
861898,1873,1827,1821
861908,1877,1829,1824
861918,1881,1827,1826
861928,1875,1831,1826
861938,1883,1833,1831
861948,1872,1839,1839
861958,1875,1840,1841
861968,1872,1839,1840
861978,1866,1840,1834
861988,1858,1840,1840
861998,1856,1842,1840
862008,1856,1842,1843
862018,1853,1845,1840
862028,1859,1840,1839
862038,1855,1849,1840
862048,1859,1846,1840
862058,1862,1842,1840
862068,1866,1843,1837
862078,1867,1841,1838
862088,1872,1841,1837
862098,1873,1840,1835
862108,1876,1840,1835
862118,1874,1839,1829
862128,1872,1839,1834
862138,1874,1839,1840
862148,1870,1837,1834
862158,1872,1838,1824
862168,1867,1837,1835
862178,1867,1839,1837
862188,1865,1839,1839
862198,1862,1837,1837
862208,1869,1839,1840
862218,1868,1835,1839
862228,1863,1837,1839
862238,1870,1839,1840
862248,1866,1839,1840
862258,1871,1839,1838
862268,1867,1837,1841
862278,1870,1836,1838
862288,1866,1840,1845
862298,1865,1840,1840
862308,1869,1841,1847
862318,1859,1841,1841
862328,1865,1840,1840
862338,1859,1842,1840
862348,1858,1842,1842
862358,1858,1842,1846
862368,1854,1840,1840
862378,1855,1840,1842
862388,1857,1840,1846
862398,1851,1840,1840
862408,1855,1841,1840
862418,1856,1839,1839
862428,1857,1840,1841
862438,1861,1840,1843
862448,1861,1841,1850
862458,1858,1849,1856
862468,1859,1855,1862
862478,1859,1863,1871
862488,1857,1872,1885
862498,1862,1875,1901
862508,1862,1892,1911
862518,1860,1899,1923
862528,1870,1906,1936
862538,1872,1911,1944
862548,1873,1919,1949
862558,1875,1925,1955
862568,1875,1926,1956
862578,1875,1923,1957
862588,1878,1926,1952
862598,1879,1923,1950
862608,1881,1914,1941
862618,1880,1913,1935
862628,1882,1904,1926
862638,1882,1903,1919
862648,1880,1893,1906
862658,1877,1883,1899
862668,1876,1871,1884
862678,1873,1861,1874
862688,1872,1862,1863
862698,1872,1850,1853
862708,1869,1840,1849
862718,1866,1839,1839
862728,1869,1831,1826
862738,1865,1835,1835
862748,1867,1830,1823
862758,1867,1826,1829
862768,1868,1829,1821
862778,1863,1825,1819
862788,1865,1831,1823
862798,1863,1831,1822
862808,1865,1830,1826
862818,1857,1826,1821
862828,1857,1834,1824
862838,1856,1838,1826
862848,1855,1837,1827
862858,1857,1840,1835
862868,1853,1840,1831
862878,1854,1840,1836
862888,1855,1840,1839
862898,1855,1840,1836
862908,1855,1840,1837
862918,1853,1838,1836
862928,1861,1839,1835
862938,1863,1840,1837
862948,1862,1839,1834
862958,1867,1840,1835
862968,1860,1834,1835
862978,1863,1840,1837
862988,1863,1835,1831
862998,1862,1840,1836
863008,1862,1840,1833
863018,1863,1837,1830
863028,1868,1840,1839
863038,1863,1840,1837
863048,1863,1840,1834
863058,1867,1840,1840
863068,1863,1840,1839
863078,1865,1842,1840
863088,1867,1841,1845
863098,1863,1839,1840
863108,1867,1842,1842
863118,1866,1840,1842
863128,1872,1845,1840
863138,1874,1841,1841
863148,1873,1843,1844
863158,1878,1841,1842
863168,1875,1841,1846
863178,1877,1844,1841
863188,1875,1843,1842
863198,1876,1842,1840
863208,1874,1842,1845
863218,1879,1842,1840
863228,1882,1846,1847
863238,1879,1846,1844
863248,1877,1846,1847
863258,1879,1846,1850
863268,1875,1850,1847
863278,1878,1852,1853
863288,1872,1847,1856
863298,1874,1846,1850
863308,1872,1851,1859
863318,1872,1854,1868
863328,1872,1862,1877
863338,1875,1869,1888
863348,1873,1872,1901
863358,1876,1879,1910
863368,1878,1889,1921
863378,1885,1895,1936
863388,1889,1904,1942
863398,1889,1914,1953
863408,1889,1921,1955
863418,1892,1919,1954
863428,1897,1926,1959
863438,1894,1926,1959
863448,1891,1927,1952
863458,1893,1922,1946
863468,1891,1918,1939
863478,1888,1909,1928
863488,1887,1907,1923
863498,1882,1897,1909
863508,1879,1890,1904
863518,1878,1879,1891
863528,1872,1873,1881
863538,1870,1870,1873
863548,1867,1860,1857
863558,1866,1851,1850
863568,1863,1847,1838
863578,1865,1843,1840
863588,1861,1840,1835
863598,1862,1839,1830
863608,1866,1837,1827
863618,1863,1834,1821
863628,1869,1838,1819
863638,1867,1830,1820
863648,1862,1831,1819
863658,1861,1834,1824
863668,1861,1834,1822
863678,1867,1841,1823
863688,1861,1840,1823
863698,1866,1840,1825
863708,1870,1840,1827
863718,1867,1842,1830
863728,1872,1845,1842
863738,1872,1844,1840
863748,1872,1845,1840
863758,1875,1849,1840
863768,1877,1846,1840
863778,1875,1845,1843
863788,1874,1840,1842
863798,1872,1840,1840
863808,1872,1843,1839
863818,1867,1840,1839
863828,1867,1840,1838
863838,1863,1840,1830
863848,1857,1835,1837
863858,1859,1839,1838
863868,1858,1837,1834
863878,1856,1838,1837
863888,1856,1840,1834
863898,1858,1842,1838
863908,1858,1841,1840
863918,1858,1840,1830
863928,1858,1840,1837
863938,1857,1840,1831
863948,1859,1838,1830
863958,1859,1840,1834
863968,1855,1838,1835
863978,1855,1840,1838
863988,1856,1835,1836
863998,1855,1840,1840
864008,1856,1841,1841
864018,1856,1841,1840
864028,1854,1840,1841
864038,1856,1842,1838
864048,1861,1843,1836
864058,1867,1841,1842
864068,1861,1841,1840
864078,1861,1845,1848
864088,1859,1840,1845
864098,1862,1840,1842
864108,1860,1843,1842
864118,1862,1839,1840
864128,1858,1841,1841
864138,1857,1840,1840
864148,1858,1840,1839
864158,1860,1841,1841
864168,1865,1840,1841
864178,1862,1841,1843
864188,1861,1840,1842
864198,1863,1847,1853
864208,1870,1847,1855
864218,1871,1851,1865
864228,1875,1861,1872
864238,1881,1869,1881
864248,1882,1872,1898
864258,1888,1888,1917
864268,1887,1894,1931
864278,1891,1904,1945
864288,1892,1911,1957
864298,1894,1921,1968
864308,1895,1929,1975
864318,1889,1936,1975
864328,1895,1936,1985
864338,1891,1937,1981
864348,1888,1936,1979
864358,1890,1937,1977
864368,1883,1931,1969
864378,1883,1930,1969
864388,1876,1922,1967
864398,1884,1918,1957
864408,1883,1909,1949
864418,1879,1901,1936
864428,1879,1895,1923
864438,1874,1882,1909
864448,1872,1872,1895
864458,1871,1867,1887
864468,1871,1855,1872
864478,1869,1845,1859
864488,1862,1840,1844
864498,1857,1835,1840
864508,1857,1831,1831
864518,1848,1825,1821
864528,1853,1823,1820
864538,1852,1827,1818
864548,1851,1824,1818
864558,1851,1828,1823
864568,1855,1830,1829
864578,1860,1834,1828
864588,1860,1838,1830
864598,1865,1841,1839
864608,1869,1841,1840
864618,1867,1844,1844
864628,1872,1850,1847
864638,1872,1847,1846
864648,1874,1848,1847
864658,1874,1846,1845
864668,1871,1843,1842
864678,1869,1843,1841
864688,1863,1840,1840
864698,1866,1840,1840
864708,1859,1840,1840
864718,1859,1839,1831
864728,1860,1837,1836
864738,1861,1838,1834
864748,1860,1842,1838
864758,1863,1840,1830
864768,1857,1839,1830
864778,1865,1839,1829
864788,1859,1834,1821
864798,1858,1830,1825
864808,1857,1833,1821
864818,1856,1829,1813
864828,1853,1828,1813
864838,1854,1825,1811
864848,1851,1832,1814
864858,1851,1826,1808
864868,1846,1829,1810
864878,1850,1826,1810
864888,1847,1830,1817
864898,1845,1831,1818
864908,1848,1829,1813
864918,1847,1829,1819
864928,1850,1834,1826
864938,1849,1831,1829
864948,1851,1834,1830
864958,1854,1831,1834
864968,1854,1835,1828
864978,1857,1839,1831
864988,1855,1835,1833
864998,1856,1838,1838
865008,1855,1837,1837
865018,1850,1836,1837
865028,1859,1838,1840
865038,1854,1840,1836
865048,1861,1845,1843
865058,1857,1840,1841
865068,1861,1845,1839
865078,1866,1844,1840
865088,1862,1844,1840
865098,1869,1849,1843
865108,1869,1843,1840
865118,1872,1841,1837
865128,1872,1850,1843
865138,1875,1847,1842
865148,1873,1853,1857
865158,1872,1855,1858
865168,1875,1858,1866
865178,1879,1866,1882
865188,1879,1871,1892
865198,1883,1880,1909
865208,1879,1889,1922
865218,1886,1897,1931
865228,1882,1904,1945
865238,1887,1914,1951
865248,1887,1915,1965
865258,1886,1920,1964
865268,1889,1921,1967
865278,1891,1930,1968
865288,1882,1923,1968
865298,1888,1921,1968
865308,1883,1920,1955
865318,1883,1916,1945
865328,1885,1910,1938
865338,1878,1902,1927
865348,1873,1891,1914
865358,1872,1882,1905
865368,1869,1878,1889
865378,1867,1872,1881
865388,1862,1856,1865
865398,1863,1851,1855
865408,1863,1842,1844
865418,1863,1839,1827
865428,1863,1837,1838
865438,1862,1829,1826
865448,1863,1830,1825
865458,1865,1827,1818
865468,1869,1828,1839
865478,1871,1827,1821
865488,1859,1825,1813
865498,1863,1823,1792
865508,1856,1836,1818
865518,1856,1827,1821
865528,1854,1841,1827
865538,1853,1840,1819
865548,1853,1838,1823
865558,1849,1838,1812
865568,1847,1839,1823
865578,1850,1840,1825
865588,1847,1847,1815
865598,1853,1850,1827
865608,1853,1841,1822
865618,1858,1841,1823
865628,1864,1845,1835
865638,1870,1840,1819
865648,1870,1840,1827
865658,1871,1846,1827
865668,1872,1842,1827
865678,1872,1845,1833
865688,1870,1833,1849
865698,1867,1831,1834
865708,1866,1844,1811
865718,1867,1831,1840
865728,1867,1840,1830
865738,1867,1841,1824
865748,1866,1838,1835
865758,1864,1831,1824
865768,1867,1839,1817
865778,1869,1856,1840
865788,1869,1842,1838
865798,1861,1846,1837
865808,1866,1846,1838
865818,1866,1826,1826
865828,1869,1840,1841
865838,1872,1834,1831
865848,1867,1849,1837
865858,1867,1850,1840
865868,1869,1851,1841
865878,1865,1853,1841
865888,1862,1840,1840
865898,1862,1849,1840
865908,1863,1843,1840
865918,1861,1843,1840
865928,1866,1844,1843
865938,1867,1847,1840
865948,1872,1842,1840
865958,1870,1846,1840
865968,1871,1854,1844
865978,1872,1853,1845
865988,1872,1843,1819
865998,1872,1847,1847
866008,1872,1856,1853
866018,1875,1855,1850
866028,1879,1858,1857
866038,1877,1856,1858
866048,1884,1841,1845
866058,1886,1875,1877
866068,1892,1875,1899
866078,1897,1885,1909
866088,1894,1889,1920
866098,1901,1898,1936
866108,1903,1909,1943
866118,1904,1920,1955
866128,1902,1926,1963
866138,1904,1925,1967
866148,1906,1936,1968
866158,1903,1934,1971
866168,1906,1941,1974
866178,1904,1938,1971
866188,1900,1935,1968
866198,1901,1935,1958
866208,1892,1921,1950
866218,1890,1920,1946
866228,1889,1907,1932
866238,1881,1902,1915
866248,1882,1899,1908
866258,1875,1883,1889
866268,1875,1873,1883
866278,1872,1867,1872
866288,1871,1855,1857
866298,1870,1844,1850
866308,1862,1839,1842
866318,1867,1833,1837
866328,1865,1837,1827
866338,1867,1830,1825
866348,1866,1834,1823
866358,1865,1835,1826
866368,1861,1831,1822
866378,1863,1834,1827
866388,1862,1834,1822
866398,1867,1837,1830
866408,1861,1837,1829
866418,1869,1839,1826
866428,1863,1834,1826
866438,1863,1840,1824
866448,1859,1841,1836
866458,1865,1840,1831
866468,1868,1842,1832
866478,1864,1840,1830
866488,1862,1839,1830
866498,1865,1840,1827
866508,1857,1838,1830
866518,1859,1840,1831
866528,1861,1840,1825
866538,1856,1836,1819
866548,1859,1834,1827
866558,1854,1834,1825
866568,1858,1839,1824
866578,1855,1839,1824
866588,1851,1840,1825
866598,1857,1837,1825
866608,1854,1839,1826
866618,1855,1842,1829
866628,1857,1839,1829
866638,1863,1845,1831
866648,1866,1843,1835
866658,1860,1850,1839
866668,1866,1846,1840
866678,1866,1845,1835
866688,1867,1843,1835
866698,1869,1845,1840
866708,1866,1843,1837
866718,1862,1844,1839
866728,1866,1841,1835
866738,1865,1842,1840
866748,1869,1845,1840
866758,1869,1844,1837
866768,1867,1843,1840
866778,1867,1845,1840
866788,1859,1841,1840
866798,1861,1848,1838
866808,1865,1846,1840
866818,1862,1845,1840
866828,1860,1845,1834
866838,1859,1845,1839
866848,1860,1841,1840
866858,1857,1845,1840
866868,1858,1847,1840
866878,1858,1850,1840
866888,1856,1847,1839
866898,1857,1845,1841
866908,1856,1846,1839
866918,1858,1845,1840
866928,1861,1847,1839
866938,1861,1845,1840
866948,1867,1853,1847
866958,1861,1856,1847
866968,1867,1856,1847
866978,1866,1859,1853
866988,1867,1865,1870
866998,1872,1872,1882
867008,1872,1881,1895
867018,1875,1894,1918
867028,1878,1904,1931
867038,1878,1920,1939
867048,1882,1935,1956
867058,1883,1936,1967
867068,1879,1949,1977
867078,1879,1951,1975
867088,1882,1954,1986
867098,1878,1959,1993
867108,1874,1954,1988
867118,1873,1947,1985
867128,1873,1938,1976
867138,1873,1936,1973
867148,1873,1929,1968
867158,1870,1921,1959
867168,1871,1909,1953
867178,1862,1901,1938
867188,1867,1891,1934
867198,1867,1881,1920
867208,1858,1869,1904
867218,1859,1862,1890
867228,1859,1853,1875
867238,1863,1846,1867
867248,1863,1840,1855
867258,1866,1837,1840
867268,1865,1829,1830
867278,1860,1827,1825
867288,1865,1824,1819
867298,1859,1824,1814
867308,1857,1819,1811
867318,1860,1824,1809
867328,1860,1823,1808
867338,1862,1827,1811
867348,1859,1827,1813
867358,1859,1834,1820
867368,1857,1834,1823
867378,1856,1837,1824
867388,1859,1840,1831
867398,1856,1838,1829
867408,1853,1838,1832
867418,1856,1840,1832
867428,1855,1840,1830
867438,1858,1841,1834
867448,1863,1842,1827
867458,1863,1840,1833
867468,1869,1841,1832
867478,1870,1840,1833
867488,1871,1842,1835
867498,1875,1841,1835
867508,1874,1842,1835
867518,1878,1840,1835
867528,1872,1841,1827
867538,1872,1840,1833
867548,1872,1840,1824
867558,1866,1838,1827
867568,1857,1840,1826
867578,1857,1840,1821
867588,1853,1827,1822
867598,1847,1830,1823
867608,1843,1827,1819
867618,1840,1827,1824
867628,1840,1828,1826
867638,1840,1831,1826
867648,1843,1833,1828
867658,1844,1829,1825
867668,1846,1833,1830
867678,1850,1833,1827
867688,1857,1838,1836
867698,1858,1833,1838
867708,1859,1833,1834
867718,1863,1835,1837
867728,1864,1831,1838
867738,1868,1840,1839
867748,1867,1836,1839
867758,1859,1835,1838
867768,1856,1840,1840
867778,1855,1840,1836
867788,1854,1843,1839
867798,1853,1845,1839
867808,1849,1840,1839
867818,1848,1850,1840
867828,1850,1844,1840
867838,1854,1847,1840
867848,1859,1846,1838
867858,1859,1847,1838
867868,1865,1847,1840
867878,1866,1845,1839
867888,1869,1849,1841
867898,1869,1846,1838
867908,1870,1844,1836
867918,1872,1846,1840
867928,1874,1847,1843
867938,1875,1854,1854
867948,1877,1856,1858
867958,1877,1861,1867
867968,1884,1872,1879
867978,1887,1881,1893
867988,1889,1891,1907
867998,1894,1903,1919
868008,1897,1909,1933
868018,1895,1924,1947
868028,1893,1940,1955
868038,1897,1940,1960
868048,1888,1942,1968
868058,1891,1948,1967
868068,1890,1953,1968
868078,1887,1945,1968
868088,1887,1941,1968
868098,1887,1936,1963
868108,1886,1930,1959
868118,1887,1922,1953
868128,1882,1915,1942
868138,1885,1907,1935
868148,1883,1894,1914
868158,1886,1883,1914
868168,1882,1874,1902
868178,1881,1866,1886
868188,1879,1857,1872
868198,1872,1847,1857
868208,1872,1840,1844
868218,1869,1839,1840
868228,1862,1834,1831
868238,1866,1831,1830
868248,1860,1831,1819
868258,1863,1836,1821
868268,1863,1837,1826
868278,1865,1840,1825
868288,1866,1846,1834
868298,1870,1847,1830
868308,1872,1854,1839
868318,1872,1856,1840
868328,1869,1855,1838
868338,1869,1857,1838
868348,1872,1855,1838
868358,1869,1854,1839
868368,1872,1857,1840
868378,1865,1855,1839
868388,1862,1852,1837
868398,1867,1855,1839
868408,1866,1846,1837
868418,1863,1847,1838
868428,1859,1846,1839
868438,1870,1843,1833
868448,1869,1840,1835
868458,1870,1843,1837
868468,1870,1845,1837
868478,1871,1841,1834
868488,1871,1840,1839
868498,1869,1839,1834
868508,1871,1840,1837
868518,1869,1840,1833
868528,1872,1830,1830
868538,1870,1837,1830
868548,1867,1833,1833
868558,1867,1837,1825
868568,1869,1841,1835
868578,1872,1841,1826
868588,1869,1841,1835
868598,1871,1839,1831
868608,1872,1841,1835
868618,1873,1844,1837
868628,1872,1839,1836
868638,1874,1842,1837
868648,1872,1842,1831
868658,1872,1841,1837
868668,1873,1840,1840
868678,1870,1840,1838
868688,1866,1840,1840
868698,1860,1840,1838
868708,1867,1841,1839
868718,1862,1840,1838
868728,1858,1840,1835
868738,1858,1842,1840
868748,1856,1841,1837
868758,1863,1843,1840
868768,1862,1840,1840
868778,1861,1842,1841
868788,1861,1842,1846
868798,1862,1845,1840
868808,1869,1842,1841
868818,1869,1846,1845
868828,1869,1847,1840
868838,1879,1851,1853
868848,1872,1853,1857
868858,1879,1858,1863
868868,1877,1866,1873
868878,1881,1872,1891
868888,1884,1887,1907
868898,1885,1903,1927
868908,1888,1916,1938
868918,1890,1933,1962
868928,1890,1936,1968
868938,1893,1948,1982
868948,1891,1950,1986
868958,1891,1954,1994
868968,1889,1963,1994
868978,1887,1951,1991
868988,1887,1943,1990
868998,1883,1937,1982
869008,1873,1933,1978
869018,1876,1919,1967
869028,1872,1910,1957
869038,1870,1904,1946
869048,1870,1890,1931
869058,1867,1882,1920
869068,1865,1873,1909
869078,1860,1867,1894
869088,1862,1857,1885
869098,1866,1847,1872
869108,1865,1840,1861
869118,1858,1839,1850
869128,1867,1831,1842
869138,1867,1839,1839
869148,1871,1834,1837
869158,1869,1841,1840
869168,1869,1840,1837
869178,1869,1840,1835
869188,1867,1845,1835
869198,1869,1850,1837
869208,1869,1853,1841
869218,1863,1853,1840
869228,1862,1846,1839
869238,1855,1847,1842
869248,1854,1849,1838
869258,1855,1851,1840
869268,1854,1847,1840
869278,1851,1846,1833
869288,1851,1845,1838
869298,1851,1844,1840
869308,1853,1843,1842
869318,1851,1842,1836
869328,1849,1840,1837
869338,1853,1841,1839
869348,1848,1841,1837
869358,1855,1839,1834
869368,1855,1840,1831
869378,1854,1839,1833
869388,1855,1839,1833
869398,1853,1840,1830
869408,1856,1838,1830
869418,1856,1836,1830
869428,1854,1835,1838
869438,1857,1843,1831
869448,1856,1840,1835
869458,1858,1839,1838
869468,1854,1836,1834
869478,1856,1839,1838
869488,1857,1840,1839
869498,1855,1840,1837
869508,1857,1840,1839
869518,1855,1838,1838
869528,1856,1840,1839
869538,1855,1842,1840
869548,1860,1846,1841
869558,1858,1841,1841
869568,1859,1841,1840
869578,1866,1839,1843
869588,1866,1842,1846
869598,1863,1842,1840
869608,1871,1840,1841
869618,1870,1840,1840
869628,1870,1840,1840
869638,1867,1842,1840
869648,1867,1841,1840
869658,1866,1840,1845
869668,1863,1841,1839
869678,1862,1840,1841
869688,1863,1840,1840
869698,1854,1840,1840
869708,1859,1839,1840
869718,1858,1839,1840
869728,1857,1841,1838
869738,1859,1842,1840
869748,1869,1843,1839
869758,1870,1842,1840
869768,1868,1843,1840
869778,1873,1842,1844
869788,1874,1847,1843
869798,1875,1841,1844
869808,1875,1843,1845
869818,1872,1842,1850
869828,1872,1840,1852
869838,1872,1840,1857
869848,1872,1849,1870
869858,1871,1861,1885
869868,1869,1869,1893
869878,1869,1879,1914
869888,1872,1894,1933
869898,1870,1907,1943
869908,1872,1919,1967
869918,1879,1933,1978
869928,1885,1935,1991
869938,1890,1949,2003
869948,1893,1953,2011
869958,1898,1952,2021
869968,1890,1943,2022
869978,1901,1946,2029
869988,1901,1948,2030
869998,1893,1941,2022
870008,1894,1937,2026
870018,1890,1921,2013
870028,1890,1915,2011
870038,1888,1907,1999
870048,1882,1900,1984
870058,1877,1888,1974
870068,1877,1878,1956
870078,1871,1869,1945
870088,1868,1861,1927
870098,1862,1855,1904
870108,1867,1850,1894
870118,1859,1841,1883
870128,1861,1840,1872
870138,1866,1837,1861
870148,1859,1836,1853
870158,1856,1835,1847
870168,1853,1838,1847
870178,1845,1841,1852
870188,1841,1846,1853
870198,1824,1845,1859
870208,1815,1847,1858
870218,1808,1854,1866
870228,1808,1854,1866
870238,1808,1850,1867
870248,1808,1850,1861
870258,1811,1842,1861
870268,1823,1846,1858
870278,1829,1841,1853
870288,1835,1840,1849
870298,1840,1836,1839
870308,1843,1837,1839
870318,1849,1831,1827
870328,1853,1834,1832
870338,1856,1834,1824
870348,1856,1829,1813
870358,1862,1846,1815
870368,1862,1834,1814
870378,1865,1828,1813
870388,1861,1827,1811
870398,1861,1827,1810
870408,1859,1831,1814
870418,1862,1834,1811
870428,1861,1835,1814
870438,1863,1835,1826
870448,1863,1840,1819
870458,1864,1836,1825
870468,1863,1838,1823
870478,1867,1841,1831
870488,1861,1840,1825
870498,1862,1835,1823
870508,1865,1837,1828
870518,1863,1834,1823
870528,1859,1834,1817
870538,1860,1834,1814
870548,1859,1837,1819
870558,1862,1840,1823
870568,1860,1838,1827
870578,1859,1841,1829
870588,1860,1843,1831
870598,1855,1845,1840
870608,1861,1845,1845
870618,1853,1846,1842
870628,1857,1854,1852
870638,1850,1851,1860
870648,1857,1849,1859
870658,1856,1841,1863
870668,1859,1846,1859
870678,1858,1846,1863
870688,1859,1840,1859
870698,1859,1840,1858
870708,1862,1840,1856
870718,1857,1840,1857
870728,1863,1840,1863
870738,1863,1840,1856
870748,1858,1842,1861
870758,1862,1842,1857
870768,1862,1842,1858
870778,1865,1842,1859
870788,1866,1842,1859
870798,1863,1847,1857
870808,1866,1851,1859
870818,1865,1847,1868
870828,1870,1856,1872
870838,1870,1857,1878
870848,1872,1859,1893
870858,1872,1872,1911
870868,1874,1882,1930
870878,1875,1897,1951
870888,1875,1904,1969
870898,1879,1919,1994
870908,1878,1926,2012
870918,1877,1936,2025
870928,1879,1939,2034
870938,1877,1936,2046
870948,1878,1938,2046
870958,1884,1939,2058
870968,1882,1933,2042
870978,1877,1926,2039
870988,1872,1914,2031
870998,1874,1909,2019
871008,1873,1899,2001
871018,1863,1887,1992
871028,1871,1885,1969
871038,1868,1871,1947
871048,1871,1865,1933
871058,1870,1855,1907
871068,1871,1841,1885
871078,1872,1838,1867
871088,1871,1830,1840
871098,1871,1827,1833
871108,1869,1823,1808
871118,1867,1817,1803
871128,1866,1815,1793
871138,1863,1811,1790
871148,1859,1821,1785
871158,1862,1822,1791
871168,1861,1826,1788
871178,1859,1828,1791
871188,1861,1824,1792
871198,1861,1828,1795
871208,1864,1830,1802
871218,1863,1829,1803
871228,1870,1831,1808
871238,1866,1831,1810
871248,1866,1837,1813
871258,1866,1839,1820
871268,1866,1837,1823
871278,1867,1837,1827
871288,1860,1840,1827
871298,1861,1842,1833
871308,1863,1844,1831
871318,1857,1840,1831
871328,1857,1842,1835
871338,1856,1842,1836
871348,1862,1843,1844
871358,1860,1847,1847
871368,1863,1844,1842
871378,1863,1851,1843
871388,1861,1843,1840
871398,1871,1847,1843
871408,1867,1850,1840
871418,1870,1847,1831
871428,1872,1843,1828
871438,1870,1840,1815
871448,1871,1840,1809
871458,1867,1840,1813
871468,1865,1839,1808
871478,1863,1840,1808
871488,1859,1840,1802
871498,1856,1840,1802
871508,1862,1840,1805
871518,1857,1839,1808
871528,1856,1840,1809
871538,1859,1841,1810
871548,1864,1840,1822
871558,1867,1847,1827
871568,1866,1843,1826
871578,1871,1853,1840
871588,1872,1847,1840
871598,1872,1856,1841
871608,1870,1851,1842
871618,1871,1855,1846
871628,1871,1854,1851
871638,1866,1856,1845
871648,1863,1854,1847
871658,1865,1857,1840
871668,1864,1850,1840
871678,1861,1853,1840
871688,1856,1849,1840
871698,1855,1849,1840
871708,1857,1851,1845
871718,1856,1846,1838
871728,1861,1850,1846
871738,1861,1853,1843
871748,1865,1857,1857
871758,1870,1858,1872
871768,1872,1863,1878
871778,1873,1872,1904
871788,1875,1883,1919
871798,1881,1889,1946
871808,1875,1903,1964
871818,1878,1909,1985
871828,1879,1922,2005
871838,1879,1927,2015
871848,1879,1936,2034
871858,1879,1936,2045
871868,1879,1938,2058
871878,1881,1936,2062
871888,1875,1934,2064
871898,1874,1930,2047
871908,1873,1920,2044
871918,1872,1913,2030
871928,1876,1904,2014
871938,1877,1901,1993
871948,1876,1889,1968
871958,1882,1878,1940
871968,1872,1869,1919
871978,1874,1860,1895
871988,1871,1855,1871
871998,1871,1843,1846
872008,1866,1839,1824
872018,1865,1835,1808
872028,1857,1834,1797
872038,1859,1829,1783
872048,1863,1827,1778
872058,1859,1826,1776
872068,1863,1823,1774
872078,1856,1826,1775
872088,1865,1831,1779
872098,1869,1835,1786
872108,1862,1835,1784
872118,1865,1836,1791
872128,1867,1837,1795
872138,1866,1838,1799
872148,1869,1840,1809
872158,1857,1836,1808
872168,1861,1841,1812
872178,1858,1843,1819
872188,1854,1845,1828
872198,1845,1851,1827
872208,1841,1849,1840
872218,1840,1850,1840
872228,1835,1854,1842
872238,1827,1856,1844
872248,1828,1852,1839
872258,1827,1849,1839
872268,1824,1848,1835
872278,1827,1844,1825
872288,1827,1842,1814
872298,1825,1840,1810
872308,1824,1840,1799
872318,1822,1832,1798
872328,1822,1838,1796
872338,1824,1831,1792
872348,1827,1831,1794
872358,1827,1831,1790
872368,1831,1835,1787
872378,1835,1837,1796
872388,1838,1834,1799
872398,1840,1839,1807
872408,1840,1839,1811
872418,1840,1838,1819
872428,1838,1842,1830
872438,1840,1840,1829
872448,1844,1843,1833
872458,1841,1840,1827
872468,1847,1844,1838
872478,1852,1841,1829
872488,1856,1842,1824
872498,1861,1838,1819
872508,1862,1830,1805
872518,1870,1827,1799
872528,1873,1830,1791
872538,1872,1827,1786
872548,1873,1831,1786
872558,1871,1828,1785
872568,1872,1829,1787
872578,1874,1837,1787
872588,1872,1840,1794
872598,1875,1835,1799
872608,1882,1831,1803
872618,1890,1827,1799
872628,1901,1829,1792
872638,1904,1827,1791
872648,1903,1823,1792
872658,1903,1821,1783
872668,1899,1827,1790
872678,1892,1831,1795
872688,1882,1830,1797
872698,1875,1828,1808
872708,1866,1838,1814
872718,1862,1837,1826
872728,1856,1840,1838
872738,1855,1839,1844
872748,1855,1850,1866
872758,1856,1853,1872
872768,1858,1860,1889
872778,1863,1872,1918
872788,1863,1888,1935
872798,1869,1902,1955
872808,1869,1909,1979
872818,1869,1932,2005
872828,1871,1940,2028
872838,1870,1943,2043
872848,1869,1955,2064
872858,1862,1954,2069
872868,1863,1966,2080
872878,1866,1955,2079
872888,1867,1954,2078
872898,1862,1957,2069
872908,1863,1942,2061
872918,1870,1940,2047
872928,1869,1921,2030
872938,1871,1910,2015
872948,1875,1901,1995
872958,1876,1885,1977
872968,1878,1873,1953
872978,1883,1863,1934
872988,1875,1858,1907
872998,1884,1843,1887
873008,1875,1835,1860
873018,1876,1834,1853
873028,1875,1822,1828
873038,1873,1821,1809
873048,1874,1819,1806
873058,1870,1819,1795
873068,1872,1819,1791
873078,1875,1822,1786
873088,1875,1818,1786
873098,1877,1823,1792
873108,1878,1826,1789
873118,1881,1829,1799
873128,1877,1835,1794
873138,1878,1830,1798
873148,1875,1838,1806
873158,1877,1839,1811
873168,1879,1840,1815
873178,1874,1840,1823
873188,1874,1840,1826
873198,1877,1842,1831
873208,1872,1838,1827
873218,1866,1841,1829
873228,1872,1840,1829
873238,1870,1840,1824
873248,1872,1840,1828
873258,1867,1838,1829
873268,1867,1839,1825
873278,1870,1835,1826
873288,1865,1838,1825
873298,1862,1840,1826
873308,1863,1840,1822
873318,1862,1840,1823
873328,1863,1840,1822
873338,1868,1839,1814
873348,1866,1841,1818
873358,1860,1840,1815
873368,1867,1840,1815
873378,1865,1840,1817
873388,1861,1840,1813
873398,1862,1845,1820
873408,1859,1844,1819
873418,1858,1842,1824
873428,1864,1840,1815
873438,1862,1841,1814
873448,1863,1842,1821
873458,1866,1840,1810
873468,1870,1843,1817
873478,1869,1840,1818
873488,1871,1840,1818
873498,1872,1841,1822
873508,1871,1843,1818
873518,1871,1842,1828
873528,1870,1844,1824
873538,1867,1842,1821
873548,1867,1841,1827
873558,1866,1841,1824
873568,1863,1840,1822
873578,1863,1845,1825
873588,1863,1842,1825
873598,1870,1848,1829
873608,1866,1849,1825
873618,1866,1849,1827
873628,1866,1847,1826
873638,1869,1845,1823
873648,1870,1847,1823
873658,1869,1843,1825
873668,1868,1845,1825
873678,1870,1844,1834
873688,1870,1846,1835
873698,1871,1844,1840
873708,1869,1851,1852
873718,1869,1855,1867
873728,1867,1859,1875
873738,1871,1869,1893
873748,1873,1872,1914
873758,1872,1885,1930
873768,1877,1897,1946
873778,1877,1903,1957
873788,1885,1910,1979
873798,1881,1917,1990
873808,1879,1924,2000
873818,1885,1933,2007
873828,1883,1930,2010
873838,1883,1931,2007
873848,1887,1930,2005
873858,1883,1925,2000
873868,1878,1922,1996
873878,1877,1918,1977
873888,1875,1905,1968
873898,1878,1899,1954
873908,1873,1888,1936
873918,1874,1875,1918
873928,1872,1871,1893
873938,1872,1858,1874
873948,1872,1855,1861
873958,1870,1843,1843
873968,1872,1841,1825
873978,1870,1835,1813
873988,1869,1837,1807
873998,1872,1833,1799
874008,1871,1833,1797
874018,1872,1830,1795
874028,1871,1827,1797
874038,1872,1838,1793
874048,1870,1840,1799
874058,1868,1840,1797
874068,1866,1840,1802
874078,1867,1843,1807
874088,1863,1845,1810
874098,1863,1851,1815
874108,1859,1847,1815
874118,1862,1845,1831
874128,1857,1841,1830
874138,1860,1850,1831
874148,1861,1847,1841
874158,1864,1849,1839
874168,1866,1845,1841
874178,1870,1846,1837
874188,1871,1851,1839
874198,1872,1846,1838
874208,1867,1840,1830
874218,1867,1842,1823
874228,1867,1840,1822
874238,1870,1840,1824
874248,1867,1840,1818
874258,1863,1839,1811
874268,1862,1840,1815
874278,1856,1840,1814
874288,1859,1839,1813
874298,1862,1840,1810
874308,1861,1839,1814
874318,1861,1840,1822
874328,1858,1840,1823
874338,1866,1845,1821
874348,1869,1841,1822
874358,1868,1842,1823
874368,1869,1841,1826
874378,1869,1842,1821
874388,1871,1840,1824
874398,1872,1840,1818
874408,1869,1840,1818
874418,1870,1840,1824
874428,1861,1840,1817
874438,1867,1841,1821
874448,1865,1840,1817
874458,1861,1840,1821
874468,1866,1840,1822
874478,1860,1840,1819
874488,1861,1840,1821
874498,1862,1840,1825
874508,1862,1838,1823
874518,1869,1841,1825
874528,1863,1840,1822
874538,1872,1842,1828
874548,1867,1843,1823
874558,1867,1839,1824
874568,1867,1840,1829
874578,1866,1841,1824
874588,1866,1840,1827
874598,1859,1843,1828
874608,1858,1840,1826
874618,1858,1840,1827
874628,1861,1841,1823
874638,1860,1839,1828
874648,1857,1840,1829
874658,1858,1842,1837
874668,1857,1847,1850
874678,1866,1856,1861
874688,1871,1859,1875
874698,1872,1870,1901
874708,1872,1873,1917
874718,1883,1889,1937
874728,1887,1903,1953
874738,1890,1906,1973
874748,1890,1914,1986
874758,1889,1927,2000
874768,1883,1934,2009
874778,1887,1936,2013
874788,1886,1939,2021
874798,1881,1938,2021
874808,1875,1939,2014
874818,1874,1937,2012
874828,1872,1929,2000
874838,1875,1923,1998
874848,1872,1916,1985
874858,1874,1903,1968
874868,1872,1895,1957
874878,1871,1888,1941
874888,1871,1885,1934
874898,1869,1874,1917
874908,1868,1868,1904
874918,1867,1862,1887
874928,1862,1855,1874
874938,1867,1853,1867
874948,1866,1846,1854
874958,1859,1841,1839
874968,1867,1842,1834
874978,1868,1840,1827
874988,1867,1841,1824
874998,1867,1840,1815
875008,1867,1840,1815
875018,1866,1845,1815
875028,1866,1845,1813
875038,1865,1842,1814
875048,1863,1843,1813
875058,1869,1842,1818
875068,1871,1840,1822
875078,1869,1841,1820
875088,1872,1840,1821
875098,1868,1839,1818
875108,1872,1838,1814
875118,1869,1835,1819
875128,1869,1839,1818
875138,1867,1836,1818
875148,1866,1838,1822
875158,1867,1831,1813
875168,1862,1830,1821
875178,1861,1830,1820
875188,1868,1827,1825
875198,1863,1834,1821
875208,1861,1829,1817
875218,1862,1829,1823
875228,1863,1825,1818
875238,1863,1832,1818
875248,1867,1829,1808
875258,1869,1831,1809
875268,1870,1828,1808
875278,1871,1830,1808
875288,1871,1830,1808
875298,1866,1829,1808
875308,1869,1827,1808
875318,1868,1833,1810
875328,1867,1831,1809
875338,1863,1830,1812
875348,1862,1830,1809
875358,1865,1829,1809
875368,1865,1835,1813
875378,1858,1831,1808
875388,1861,1835,1808
875398,1862,1828,1815
875408,1867,1834,1813
875418,1862,1831,1819
875428,1863,1830,1810
875438,1863,1831,1818
875448,1866,1830,1813
875458,1868,1835,1818
875468,1872,1836,1822
875478,1871,1840,1822
875488,1871,1840,1829
875498,1870,1840,1825
875508,1868,1840,1834
875518,1871,1840,1838
875528,1867,1842,1839
875538,1871,1847,1840
875548,1865,1842,1840
875558,1866,1840,1840
875568,1867,1846,1846
875578,1862,1842,1843
875588,1863,1848,1850
875598,1867,1842,1845
875608,1871,1847,1857
875618,1872,1851,1867
875628,1872,1850,1871
875638,1875,1856,1885
875648,1879,1859,1894
875658,1878,1872,1915
875668,1882,1883,1939
875678,1878,1893,1959
875688,1882,1906,1971
875698,1883,1911,1990
875708,1883,1925,2006
875718,1883,1931,2012
875728,1881,1934,2011
875738,1884,1935,2022
875748,1881,1936,2015
875758,1879,1938,2015
875768,1879,1933,2011
875778,1879,1926,1998
875788,1881,1918,1984
875798,1878,1909,1979
875808,1883,1904,1968
875818,1883,1900,1945
875828,1879,1884,1930
875838,1878,1878,1917
875848,1871,1871,1904
875858,1872,1867,1886
875868,1871,1856,1871
875878,1866,1850,1856
875888,1861,1843,1841
875898,1857,1840,1831
875908,1856,1840,1836
875918,1853,1836,1813
875928,1855,1830,1806
875938,1855,1828,1807
875948,1856,1826,1801
875958,1853,1825,1796
875968,1856,1826,1796
875978,1856,1826,1797
875988,1869,1835,1797
875998,1863,1835,1806
876008,1869,1838,1809
876018,1870,1834,1808
876028,1863,1830,1808
876038,1869,1840,1813
876048,1863,1837,1813
876058,1864,1840,1823
876068,1862,1840,1819
876078,1861,1840,1813
876088,1865,1840,1815
876098,1863,1840,1818
876108,1863,1835,1818
876118,1862,1840,1813
876128,1860,1838,1815
876138,1863,1840,1815
876148,1866,1833,1812
876158,1866,1839,1818
876168,1867,1840,1812
876178,1862,1835,1812
876188,1865,1840,1816
876198,1860,1839,1819
876208,1863,1840,1823
876218,1866,1842,1824
876228,1866,1841,1823
876238,1867,1842,1831
876248,1865,1846,1831
876258,1868,1846,1837
876268,1861,1843,1837
876278,1865,1843,1839
876288,1867,1842,1840
876298,1863,1846,1839
876308,1861,1849,1840
876318,1865,1842,1835
876328,1869,1840,1831
876338,1871,1841,1827
876348,1871,1840,1825
876358,1872,1840,1828
876368,1867,1838,1819
876378,1872,1840,1824
876388,1869,1839,1826
876398,1860,1840,1829
876408,1863,1843,1833
876418,1862,1842,1831
876428,1859,1844,1830
876438,1858,1845,1840
876448,1859,1841,1834
876458,1862,1842,1830
876468,1861,1840,1835
876478,1862,1840,1830
876488,1865,1839,1825
876498,1863,1839,1823
876508,1865,1840,1827
876518,1859,1840,1818
876528,1862,1839,1823
876538,1863,1840,1825
876548,1860,1839,1824
876558,1861,1840,1826
876568,1863,1840,1831
876578,1866,1840,1840
876588,1871,1845,1850
876598,1866,1852,1864
876608,1871,1856,1878
876618,1866,1859,1901
876628,1872,1872,1919
876638,1872,1887,1941
876648,1874,1898,1968
876658,1874,1906,1986
876668,1876,1915,2003
876678,1881,1926,2023
876688,1886,1936,2032
876698,1885,1936,2043
876708,1885,1942,2046
876718,1884,1936,2047
876728,1883,1938,2053
876738,1878,1939,2043
876748,1879,1936,2033
876758,1878,1935,2032
876768,1872,1930,2015
876778,1872,1928,2001
876788,1872,1919,1989
876798,1872,1910,1968
876808,1871,1904,1953
876818,1871,1893,1936
876828,1872,1883,1911
876838,1876,1872,1901
876848,1872,1857,1877
876858,1872,1853,1861
876868,1872,1842,1841
876878,1866,1840,1827
876888,1869,1835,1821
876898,1867,1833,1810
876908,1866,1831,1802
876918,1857,1829,1797
876928,1859,1827,1798
876938,1862,1825,1798
876948,1859,1827,1795
876958,1858,1829,1793
876968,1854,1827,1791
876978,1856,1831,1795
876988,1857,1834,1804
876998,1858,1840,1808
877008,1856,1839,1815
877018,1856,1840,1811
877028,1858,1840,1821
877038,1857,1842,1825
877048,1859,1840,1824
877058,1866,1842,1824
877068,1865,1840,1817
877078,1867,1840,1819
877088,1863,1840,1820
877098,1867,1839,1808
877108,1862,1837,1814
877118,1859,1838,1808
877128,1861,1838,1810
877138,1863,1834,1808
877148,1863,1833,1810
877158,1859,1834,1811
877168,1865,1840,1825
877178,1865,1840,1831
877188,1867,1840,1834
877198,1869,1842,1836
877208,1867,1847,1843
877218,1867,1841,1840
877228,1872,1843,1840
877238,1872,1841,1840
877248,1871,1844,1840
877258,1870,1843,1837
877268,1867,1843,1829
877278,1870,1842,1835
877288,1870,1841,1829
877298,1869,1840,1825
877308,1869,1841,1831
877318,1869,1846,1824
877328,1869,1841,1825
877338,1867,1840,1826
877348,1859,1840,1828
877358,1861,1841,1825
877368,1862,1842,1829
877378,1862,1842,1828
877388,1867,1843,1830
877398,1859,1840,1829
877408,1867,1845,1829
877418,1865,1840,1829
877428,1869,1843,1833
877438,1871,1840,1829
877448,1865,1840,1825
877458,1872,1840,1830
877468,1865,1840,1830
877478,1866,1840,1837
877488,1861,1842,1837
877498,1856,1844,1840
877508,1854,1847,1840
877518,1845,1847,1847
877528,1845,1851,1856
877538,1842,1851,1858
877548,1842,1850,1870
877558,1843,1856,1882
877568,1846,1857,1899
877578,1854,1872,1915
877588,1861,1878,1936
877598,1863,1882,1952
877608,1872,1897,1968
877618,1873,1904,1982
877628,1879,1915,2000
877638,1879,1917,2004
877648,1888,1917,2013
877658,1889,1926,2021
877668,1886,1925,2023
877678,1887,1930,2015
877688,1885,1924,2021
877698,1883,1919,2016
877708,1883,1920,2005
877718,1882,1915,1999
877728,1878,1911,1991
877738,1878,1903,1968
877748,1872,1899,1953
877758,1872,1895,1939
