timestamp_ms_device,ppg_finger1,ppg_finger2,ppg_finger3
300294,1843,1833,1836
300304,1838,1831,1837
300314,1834,1830,1830
300324,1839,1831,1831
300334,1836,1831,1830
300344,1838,1831,1828
300354,1842,1829,1825
300364,1839,1830,1824
300374,1836,1833,1829
300384,1834,1833,1830
300394,1837,1837,1831
300404,1838,1835,1826
300414,1839,1835,1835
300424,1834,1833,1827
300434,1839,1831,1838
300444,1839,1831,1830
300454,1839,1826,1835
300464,1834,1828,1830
300474,1835,1831,1831
300484,1833,1826,1830
300494,1835,1833,1829
300504,1838,1831,1829
300514,1838,1834,1830
300524,1838,1830,1827
300534,1834,1828,1825
300544,1834,1825,1825
300554,1833,1832,1823
300564,1831,1829,1827
300574,1834,1827,1822
300584,1830,1830,1821
300594,1831,1827,1827
300604,1836,1829,1829
300614,1839,1829,1825
300624,1834,1829,1824
300634,1837,1829,1821
300644,1836,1827,1830
300654,1837,1829,1828
300664,1834,1833,1827
300674,1833,1829,1826
300684,1835,1829,1837
300694,1838,1835,1831
300704,1829,1833,1831
300714,1835,1830,1831
300724,1834,1835,1835
300734,1838,1834,1831
300744,1837,1831,1830
300754,1840,1833,1835
300764,1841,1835,1840
300774,1842,1830,1840
300784,1847,1832,1843
300794,1850,1839,1846
300804,1854,1835,1841
300814,1856,1835,1848
300824,1861,1837,1855
300834,1859,1840,1853
300844,1859,1840,1861
300854,1862,1840,1863
300864,1860,1840,1858
300874,1862,1839,1859
300884,1858,1837,1859
300894,1860,1837,1859
300904,1856,1836,1856
300914,1855,1837,1857
300924,1856,1831,1851
300934,1855,1831,1850
300944,1845,1827,1851
300954,1847,1831,1843
300964,1846,1828,1843
300974,1844,1829,1840
300984,1842,1825,1831
300994,1842,1826,1834
301004,1838,1826,1826
301014,1839,1824,1826
301024,1834,1825,1822
301034,1833,1825,1822
301044,1836,1820,1821
301054,1833,1822,1821
301064,1835,1824,1818
301074,1829,1825,1819
301084,1835,1825,1818
301094,1837,1822,1821
301104,1839,1825,1819
301114,1835,1829,1822
301124,1840,1831,1816
301134,1840,1829,1824
301144,1846,1834,1825
301154,1843,1835,1827
301164,1842,1834,1830
301174,1842,1840,1829
301184,1841,1838,1830
301194,1842,1835,1831
301204,1841,1833,1833
301214,1843,1835,1830
301224,1840,1830,1834
301234,1840,1834,1837
301244,1840,1834,1834
301254,1839,1831,1832
301264,1838,1827,1827
301274,1839,1834,1824
301284,1834,1825,1829
301294,1838,1825,1825
301304,1830,1819,1824
301314,1838,1821,1819
301324,1835,1824,1818
301334,1837,1824,1815
301344,1831,1822,1818
301354,1834,1823,1807
301364,1835,1821,1808
301374,1840,1821,1809
301384,1837,1829,1808
301394,1839,1824,1808
301404,1839,1826,1811
301414,1836,1823,1813
301424,1840,1823,1813
301434,1834,1827,1815
301444,1840,1829,1819
301454,1839,1830,1819
301464,1837,1829,1819
301474,1838,1822,1818
301484,1838,1827,1829
301494,1843,1825,1824
301504,1840,1827,1827
301514,1846,1828,1839
301524,1847,1829,1839
301534,1855,1830,1839
301544,1849,1835,1854
301554,1856,1831,1847
301564,1855,1837,1850
301574,1857,1834,1851
301584,1857,1841,1855
301594,1856,1840,1854
301604,1861,1841,1858
301614,1863,1840,1858
301625,1855,1840,1859
301635,1856,1842,1857
301645,1860,1841,1858
301655,1859,1840,1856
301665,1858,1841,1851
301675,1856,1840,1853
301685,1862,1840,1855
301695,1852,1839,1849
301705,1848,1840,1841
301715,1847,1840,1843
301725,1843,1839,1840
301735,1845,1840,1842
301745,1847,1834,1838
301755,1845,1834,1837
301765,1840,1834,1840
301775,1842,1830,1839
301785,1841,1823,1829
301795,1839,1830,1835
301805,1839,1831,1829
301815,1839,1824,1832
301825,1839,1829,1827
301835,1834,1827,1829
301845,1837,1826,1826
301855,1836,1830,1828
301865,1840,1830,1829
301875,1838,1830,1825
301885,1840,1825,1830
301895,1840,1826,1825
301905,1839,1829,1824
301915,1837,1827,1836
301925,1840,1829,1834
301935,1840,1827,1833
301945,1840,1826,1830
301955,1840,1827,1829
301965,1841,1824,1831
301975,1840,1823,1837
301985,1840,1831,1837
301995,1844,1830,1828
302005,1841,1827,1836
302015,1847,1824,1835
302025,1840,1829,1831
302035,1838,1829,1829
302045,1842,1829,1839
302055,1835,1833,1835
302065,1839,1829,1834
302075,1842,1824,1837
302085,1838,1833,1835
302095,1835,1828,1837
302105,1840,1829,1834
302115,1840,1827,1839
302125,1838,1826,1834
302135,1834,1823,1831
302145,1831,1827,1830
302155,1839,1823,1831
302165,1834,1827,1836
302175,1838,1828,1831
302185,1840,1830,1831
302195,1833,1826,1833
302205,1833,1828,1829
302215,1840,1825,1832
302225,1840,1830,1834
302235,1840,1829,1838
302245,1842,1832,1833
302255,1843,1831,1839
302265,1850,1835,1840
302275,1852,1840,1845
302285,1856,1840,1850
302295,1865,1838,1858
302305,1860,1841,1859
302315,1863,1840,1860
302325,1866,1840,1863
302335,1862,1845,1861
302345,1863,1846,1863
302355,1863,1844,1858
302365,1865,1841,1862
302375,1858,1841,1857
302385,1859,1840,1854
302395,1856,1842,1857
302405,1855,1842,1853
302415,1853,1840,1853
302425,1851,1840,1849
302435,1847,1839,1843
302445,1844,1840,1843
302455,1842,1831,1837
302465,1841,1833,1837
302475,1838,1830,1833
302485,1837,1826,1828
302495,1837,1830,1826
302505,1835,1825,1833
302515,1838,1831,1824
302525,1839,1823,1822
302535,1840,1826,1819
302545,1833,1827,1817
302555,1831,1825,1823
302565,1838,1824,1824
302575,1831,1830,1821
302585,1834,1831,1823
302595,1838,1831,1824
302605,1834,1834,1821
302615,1831,1826,1826
302625,1837,1827,1828
302635,1840,1830,1829
302645,1835,1830,1830
302655,1839,1829,1831
302665,1837,1826,1832
302675,1839,1825,1827
302685,1836,1829,1826
302695,1839,1824,1823
302705,1840,1829,1825
302715,1837,1825,1827
302725,1838,1823,1825
302735,1833,1823,1823
302745,1834,1825,1823
302755,1840,1823,1820
302765,1835,1821,1826
302775,1839,1826,1821
302785,1840,1829,1821
302795,1839,1821,1822
302805,1838,1827,1825
302815,1835,1828,1822
302825,1840,1826,1825
302835,1837,1830,1823
302845,1834,1824,1824
302855,1840,1824,1819
302865,1840,1828,1816
302875,1839,1825,1822
302885,1835,1826,1824
302895,1831,1827,1817
302905,1830,1823,1819
302915,1835,1830,1821
302925,1837,1824,1814
302935,1831,1827,1822
302945,1835,1823,1821
302955,1837,1824,1822
302965,1831,1825,1820
302975,1838,1823,1819
302985,1840,1826,1820
302995,1840,1830,1824
303005,1842,1833,1835
303015,1843,1826,1830
303025,1847,1829,1831
303035,1855,1834,1840
303045,1857,1835,1840
303055,1859,1837,1846
303065,1856,1841,1851
303075,1858,1838,1850
303085,1859,1837,1851
303095,1860,1841,1849
303105,1861,1840,1851
303115,1857,1839,1849
303125,1855,1836,1854
303135,1855,1837,1856
303145,1855,1839,1843
303155,1854,1838,1844
303165,1850,1833,1843
303175,1842,1835,1837
303185,1840,1826,1839
303195,1840,1829,1831
303205,1840,1825,1824
303215,1840,1825,1824
303225,1840,1826,1829
303235,1831,1822,1822
303245,1835,1822,1820
303255,1835,1826,1818
303265,1831,1827,1813
303275,1838,1829,1812
303285,1833,1825,1821
303295,1834,1827,1817
303305,1835,1815,1821
303315,1840,1829,1816
303325,1835,1831,1822
303335,1840,1830,1823
303345,1839,1840,1830
303355,1840,1834,1838
303365,1840,1829,1832
303375,1843,1833,1833
303385,1842,1831,1830
303395,1840,1837,1832
303405,1840,1831,1834
303415,1845,1836,1831
303425,1840,1837,1829
303435,1841,1834,1828
303445,1840,1837,1839
303455,1840,1827,1830
303465,1842,1833,1829
303475,1839,1834,1828
303485,1838,1826,1828
303495,1840,1829,1825
303505,1840,1826,1818
303515,1840,1831,1822
303525,1840,1826,1823
303535,1840,1830,1821
303545,1835,1830,1827
303555,1840,1829,1827
303565,1840,1826,1823
303575,1839,1823,1826
303585,1839,1830,1826
303595,1837,1826,1820
303605,1838,1829,1822
303615,1831,1833,1823
303625,1837,1831,1822
303635,1840,1827,1824
303645,1835,1829,1824
303655,1839,1834,1829
303665,1840,1827,1826
303675,1840,1827,1828
303685,1837,1834,1830
303695,1839,1830,1826
303705,1840,1833,1826
303715,1840,1826,1835
303725,1838,1829,1835
303735,1843,1834,1837
303745,1847,1833,1837
303755,1849,1835,1840
303765,1851,1840,1843
303775,1857,1838,1854
303785,1862,1842,1849
303795,1865,1846,1856
303805,1861,1840,1857
303815,1869,1847,1855
303825,1861,1840,1862
303835,1859,1840,1861
303845,1867,1841,1861
303855,1862,1840,1863
303865,1857,1846,1853
303875,1858,1840,1857
303885,1855,1837,1854
303895,1855,1839,1851
303905,1853,1837,1846
303915,1846,1831,1840
303925,1844,1835,1840
303935,1841,1834,1837
303945,1844,1834,1833
303955,1841,1828,1831
303965,1840,1830,1825
303975,1839,1822,1829
303985,1837,1826,1825
303995,1837,1826,1822
304005,1839,1825,1827
304015,1831,1826,1821
304025,1835,1830,1823
304035,1839,1826,1823
304045,1840,1827,1824
304055,1838,1831,1826
304065,1840,1831,1822
304075,1836,1833,1828
304085,1843,1830,1825
304095,1838,1831,1825
304105,1836,1831,1830
304115,1840,1831,1827
304125,1839,1827,1830
304135,1851,1835,1831
304145,1840,1827,1831
304155,1837,1831,1827
304165,1840,1825,1825
304175,1839,1827,1828
304185,1840,1835,1826
304195,1839,1833,1829
304205,1838,1827,1831
304215,1840,1829,1823
304225,1842,1833,1821
304235,1841,1831,1822
304245,1840,1825,1830
304255,1838,1829,1827
304265,1835,1834,1825
304275,1840,1831,1825
304285,1833,1834,1827
304295,1835,1829,1827
304305,1838,1830,1821
304315,1840,1827,1827
304325,1835,1827,1826
304335,1838,1833,1825
304345,1840,1829,1827
304355,1831,1830,1827
304365,1836,1829,1829
304375,1835,1831,1827
304385,1833,1830,1827
304395,1839,1826,1827
304405,1835,1829,1826
304415,1840,1825,1826
304425,1828,1825,1822
304435,1838,1829,1827
304445,1839,1828,1830
304455,1835,1826,1830
304465,1837,1834,1826
304475,1840,1825,1827
304485,1840,1837,1829
304495,1841,1828,1833
304505,1845,1826,1840
304515,1850,1838,1837
304525,1850,1831,1840
304535,1853,1833,1844
304545,1851,1833,1845
304555,1855,1837,1856
304565,1859,1840,1854
304575,1863,1840,1854
304585,1863,1839,1861
304595,1856,1837,1856
304605,1863,1837,1858
304615,1863,1840,1858
304625,1863,1841,1856
304635,1859,1845,1857
304645,1858,1842,1853
304655,1859,1841,1856
304665,1854,1842,1853
304675,1855,1838,1846
304685,1856,1838,1846
304695,1858,1839,1846
304705,1847,1840,1846
304715,1846,1835,1841
304725,1845,1836,1840
304735,1850,1833,1840
304745,1839,1838,1838
304755,1840,1834,1834
304765,1829,1833,1838
304775,1840,1827,1833
304785,1839,1827,1830
304795,1840,1829,1836
304805,1840,1829,1834
304815,1840,1834,1835
304825,1840,1836,1835
304835,1839,1830,1839
304845,1839,1838,1838
304855,1839,1831,1833
304865,1839,1837,1834
304875,1840,1831,1833
304885,1839,1840,1840
304895,1840,1838,1838
304905,1841,1837,1840
304915,1840,1835,1839
304925,1840,1827,1838
304935,1838,1838,1833
304945,1840,1831,1826
304955,1841,1834,1830
304965,1840,1838,1837
304975,1839,1831,1831
304985,1840,1833,1831
304995,1838,1833,1833
305005,1840,1833,1829
305015,1839,1831,1839
305025,1841,1839,1839
305035,1837,1831,1835
305045,1841,1830,1830
305055,1839,1834,1836
305065,1836,1831,1836
305075,1835,1834,1829
305085,1836,1827,1830
305095,1839,1829,1827
305105,1835,1835,1830
305115,1837,1824,1833
305125,1836,1831,1827
305135,1834,1827,1824
305145,1826,1829,1819
305155,1832,1830,1827
305165,1835,1827,1827
305175,1831,1826,1827
305185,1831,1829,1830
305195,1831,1833,1830
305205,1833,1833,1833
305215,1840,1830,1825
305225,1837,1828,1827
305235,1831,1830,1838
305245,1844,1834,1839
305255,1844,1831,1840
305265,1842,1840,1845
305275,1853,1840,1846
305285,1851,1841,1851
305295,1856,1843,1855
305305,1863,1840,1856
305315,1865,1843,1862
305325,1867,1847,1866
305335,1869,1840,1863
305345,1866,1846,1865
305355,1859,1841,1867
305365,1863,1840,1866
305375,1862,1841,1861
305385,1861,1843,1862
305395,1856,1841,1858
305405,1855,1843,1856
305415,1854,1840,1853
305425,1853,1840,1847
305435,1856,1840,1852
305445,1847,1839,1845
305455,1847,1838,1842
305465,1845,1834,1842
305475,1840,1837,1840
305485,1841,1830,1840
305495,1840,1833,1841
305505,1836,1829,1837
305515,1840,1826,1833
305525,1839,1828,1838
305535,1837,1829,1830
305545,1839,1830,1827
305555,1837,1831,1827
305565,1834,1831,1827
305575,1831,1829,1834
305585,1839,1838,1828
305595,1840,1834,1830
305605,1837,1834,1831
305615,1842,1837,1831
305625,1839,1831,1836
305635,1843,1829,1827
305645,1830,1836,1834
305655,1840,1830,1835
305665,1840,1827,1833
305675,1834,1831,1835
305685,1839,1830,1836
305695,1840,1833,1835
305705,1840,1833,1835
305715,1838,1833,1828
305725,1835,1825,1835
305735,1838,1834,1831
305745,1839,1830,1829
305755,1840,1826,1833
305765,1838,1831,1830
305775,1836,1828,1837
305785,1835,1834,1830
305795,1840,1828,1835
305805,1840,1831,1835
305815,1840,1828,1826
305825,1838,1829,1837
305835,1836,1834,1827
305845,1834,1838,1837
305855,1836,1840,1835
305865,1838,1827,1830
305875,1839,1833,1831
305885,1840,1830,1834
305895,1838,1827,1829
305905,1840,1831,1831
305915,1835,1835,1829
305925,1840,1829,1829
305935,1838,1835,1826
305945,1838,1831,1834
305955,1837,1829,1827
305965,1839,1826,1830
305975,1838,1830,1834
305985,1836,1835,1832
305995,1839,1834,1829
306005,1840,1834,1830
306015,1840,1837,1840
306025,1845,1835,1840
306035,1849,1835,1842
306045,1850,1839,1842
306055,1854,1835,1847
306065,1857,1840,1849
306075,1859,1840,1860
306085,1861,1843,1857
306095,1863,1842,1859
306105,1861,1841,1866
306115,1859,1839,1866
306125,1867,1846,1871
306135,1867,1846,1869
306145,1862,1841,1862
306155,1863,1838,1861
306165,1858,1840,1862
306175,1861,1840,1856
306185,1857,1839,1861
306195,1854,1839,1854
306205,1855,1837,1853
306215,1847,1838,1844
306225,1847,1833,1842
306235,1846,1839,1842
306245,1842,1830,1840
306255,1843,1834,1830
306265,1842,1827,1835
306275,1840,1829,1830
306285,1836,1830,1833
306295,1837,1826,1831
306305,1837,1830,1824
306315,1833,1825,1830
306325,1839,1831,1826
306335,1835,1829,1824
306345,1839,1829,1830
306355,1837,1830,1825
306365,1840,1822,1820
306375,1835,1825,1827
306385,1842,1830,1823
306395,1840,1827,1825
306405,1835,1825,1823
306415,1837,1825,1826
306425,1839,1830,1827
306435,1840,1826,1825
306445,1834,1829,1823
306455,1839,1822,1827
306465,1829,1824,1838
306475,1837,1823,1827
306485,1833,1825,1821
306495,1838,1828,1820
306505,1837,1824,1822
306515,1834,1825,1818
306525,1831,1824,1826
306535,1832,1822,1818
306545,1835,1824,1826
306555,1840,1823,1825
306565,1831,1822,1822
306575,1840,1824,1825
306585,1840,1826,1823
306595,1837,1827,1823
306605,1834,1825,1825
306615,1830,1826,1813
306625,1835,1826,1814
306635,1833,1824,1825
306645,1834,1828,1821
306655,1830,1826,1821
306665,1839,1827,1815
306675,1831,1821,1820
306685,1830,1820,1819
306695,1832,1825,1820
306705,1839,1819,1821
306715,1833,1820,1820
306725,1835,1826,1814
306735,1833,1821,1821
306745,1838,1824,1819
306755,1834,1823,1817
306765,1834,1821,1819
306775,1837,1826,1819
306785,1840,1825,1823
306795,1840,1830,1825
306805,1841,1835,1827
306815,1845,1831,1834
306825,1849,1839,1836
306835,1851,1835,1840
306845,1856,1838,1849
306855,1858,1835,1854
306865,1858,1840,1850
306875,1857,1839,1855
306885,1861,1840,1855
306895,1857,1843,1856
306905,1866,1845,1855
306915,1866,1840,1861
306925,1862,1838,1853
306935,1856,1840,1853
306945,1857,1838,1853
306955,1855,1840,1842
306965,1849,1834,1839
306975,1846,1838,1845
306985,1854,1837,1840
306995,1845,1829,1840
307005,1840,1833,1836
307015,1842,1829,1824
307025,1840,1831,1827
307035,1831,1822,1828
307045,1840,1826,1826
307055,1843,1830,1823
307065,1840,1825,1823
307075,1840,1826,1826
307085,1837,1826,1824
307095,1834,1830,1823
307105,1840,1827,1825
307115,1840,1827,1821
307125,1838,1831,1824
307135,1833,1824,1827
307145,1839,1830,1829
307155,1839,1830,1826
307165,1835,1835,1825
307175,1840,1833,1826
307185,1837,1831,1834
307195,1837,1826,1829
307205,1836,1827,1827
307215,1840,1825,1829
307225,1835,1831,1829
307235,1833,1825,1833
307245,1838,1824,1830
307255,1840,1833,1825
307265,1838,1830,1833
307275,1839,1834,1827
307285,1839,1829,1829
307295,1837,1824,1823
307305,1837,1830,1829
307315,1834,1830,1825
307325,1838,1835,1821
307335,1841,1831,1826
307345,1836,1835,1825
307355,1840,1830,1825
307365,1837,1831,1825
307375,1838,1829,1826
307385,1839,1831,1825
307395,1839,1837,1823
307405,1836,1834,1825
307415,1837,1835,1829
307425,1839,1825,1827
307435,1839,1837,1826
307445,1835,1830,1825
307455,1835,1833,1829
307465,1835,1831,1827
307475,1839,1829,1828
307485,1835,1832,1822
307495,1840,1830,1823
307505,1840,1830,1827
307515,1838,1824,1825
307525,1842,1831,1827
307535,1840,1827,1830
307545,1842,1829,1834
307555,1851,1834,1835
307565,1853,1837,1840
307575,1851,1839,1842
307585,1857,1840,1849
307595,1861,1840,1850
307605,1860,1840,1852
307615,1867,1843,1857
307625,1863,1845,1858
307635,1865,1841,1857
307645,1868,1841,1861
307655,1860,1840,1860
307665,1860,1842,1862
307675,1863,1842,1863
307685,1856,1840,1857
307695,1858,1837,1849
307705,1853,1840,1854
307715,1851,1838,1847
307725,1853,1840,1842
307735,1854,1831,1849
307745,1849,1839,1840
307755,1846,1835,1840
307765,1847,1836,1839
307775,1840,1830,1836
307785,1840,1832,1834
307795,1839,1829,1825
307805,1837,1831,1826
307815,1837,1824,1822
307825,1837,1831,1826
307835,1835,1830,1825
307845,1840,1830,1825
307855,1841,1829,1825
307865,1837,1825,1826
307875,1835,1826,1821
307885,1838,1829,1825
307895,1838,1831,1824
307905,1840,1827,1833
307915,1831,1831,1828
307925,1837,1831,1828
307935,1841,1833,1829
307945,1839,1835,1825
307955,1840,1826,1838
307965,1835,1831,1831
307975,1839,1829,1831
307985,1840,1830,1832
307995,1838,1833,1826
308005,1839,1829,1831
308015,1840,1827,1831
308025,1833,1831,1828
308035,1840,1830,1827
308045,1831,1833,1824
308055,1840,1831,1826
308065,1831,1827,1830
308075,1836,1830,1831
308085,1829,1830,1832
308095,1840,1829,1825
308105,1839,1827,1827
308115,1839,1823,1825
308125,1840,1823,1830
308135,1840,1830,1827
308145,1833,1830,1829
308155,1836,1826,1824
308165,1838,1830,1826
308175,1834,1827,1826
308185,1840,1831,1824
308195,1833,1823,1824
308205,1835,1825,1826
308215,1838,1825,1829
308225,1837,1825,1829
308235,1837,1827,1823
308245,1834,1826,1831
308255,1830,1821,1829
308265,1836,1825,1826
308275,1838,1829,1821
308285,1839,1826,1825
308295,1838,1826,1822
308305,1841,1831,1823
308315,1838,1835,1827
308325,1843,1829,1833
308335,1841,1826,1833
308345,1851,1829,1838
308355,1847,1831,1840
308365,1849,1836,1842
308375,1856,1837,1847
308385,1861,1834,1842
308395,1859,1835,1851
308405,1867,1838,1852
308415,1863,1839,1858
308425,1866,1846,1857
308435,1865,1840,1856
308445,1862,1840,1857
308455,1865,1840,1856
308465,1861,1840,1855
308475,1858,1840,1854
308485,1855,1840,1849
308495,1850,1839,1849
308505,1853,1838,1847
308515,1850,1835,1841
308525,1847,1830,1840
308535,1844,1834,1835
308545,1845,1828,1824
308555,1843,1826,1829
308565,1841,1829,1827
308575,1840,1831,1824
308585,1840,1825,1823
308595,1837,1815,1824
308605,1838,1827,1824
308615,1840,1840,1821
308625,1833,1832,1830
308635,1836,1826,1819
308645,1837,1822,1814
308655,1831,1823,1826
308665,1836,1826,1823
308675,1837,1830,1821
308685,1837,1834,1820
308695,1838,1830,1835
308705,1838,1833,1823
308715,1838,1829,1824
308725,1841,1829,1826
308735,1840,1829,1817
308745,1841,1831,1821
308755,1836,1821,1829
308765,1840,1825,1829
308775,1840,1842,1829
308785,1841,1828,1822
308795,1838,1826,1823
308805,1840,1832,1834
308815,1831,1835,1827
308825,1840,1818,1824
308835,1838,1821,1825
308845,1840,1827,1830
308855,1840,1829,1819
308865,1830,1825,1824
308875,1834,1829,1835
308885,1834,1829,1833
308895,1837,1831,1825
308905,1840,1826,1827
308915,1835,1827,1826
308925,1835,1827,1823
308935,1841,1829,1826
308945,1840,1831,1826
308955,1838,1827,1827
308965,1830,1830,1826
308975,1838,1831,1825
308985,1840,1830,1824
308995,1837,1831,1823
309005,1833,1827,1825
309015,1836,1834,1829
309025,1840,1831,1824
309035,1831,1826,1823
309045,1835,1827,1825
309055,1838,1831,1829
309065,1837,1831,1828
309075,1841,1831,1826
309085,1843,1831,1833
309095,1843,1835,1835
309105,1851,1838,1840
309115,1853,1834,1847
309125,1856,1840,1845
309135,1862,1840,1855
309145,1866,1840,1858
309155,1866,1842,1863
309165,1862,1846,1860
309175,1863,1843,1861
309185,1866,1843,1862
309195,1860,1845,1857
309205,1871,1841,1862
309215,1861,1841,1857
309225,1858,1840,1859
309235,1857,1840,1857
309245,1856,1840,1857
309255,1850,1834,1853
309265,1856,1839,1851
309275,1862,1835,1844
309285,1842,1834,1847
309295,1843,1834,1840
309305,1843,1831,1840
309315,1840,1836,1839
309325,1834,1827,1833
309335,1837,1825,1830
309345,1828,1827,1828
309355,1833,1823,1827
309365,1826,1830,1827
309375,1826,1827,1824
309385,1827,1827,1829
309395,1827,1825,1824
309405,1823,1829,1827
309415,1829,1830,1830
309425,1829,1824,1831
309435,1829,1827,1829
309445,1830,1830,1827
309455,1833,1830,1826
309465,1830,1830,1828
309475,1834,1834,1835
309485,1828,1830,1834
309495,1827,1831,1829
309505,1831,1826,1837
309515,1839,1831,1835
309525,1840,1830,1834
309535,1835,1830,1829
309545,1840,1825,1829
309555,1840,1830,1828
309565,1839,1829,1827
309575,1840,1826,1827
309585,1827,1829,1831
309595,1839,1835,1830
309605,1837,1833,1827
309615,1835,1827,1824
309625,1839,1835,1833
309635,1838,1826,1831
309645,1840,1833,1830
309655,1840,1834,1825
309665,1835,1835,1831
309675,1834,1827,1828
309685,1839,1829,1825
309695,1837,1835,1827
309705,1837,1829,1827
309715,1834,1834,1829
309725,1838,1826,1829
309735,1840,1828,1829
309745,1840,1833,1827
309755,1840,1834,1827
309765,1838,1830,1834
309775,1840,1834,1826
309785,1839,1836,1834
309795,1840,1833,1831
309805,1842,1833,1837
309815,1853,1835,1837
309825,1846,1831,1835
309835,1849,1835,1842
309845,1858,1840,1847
309855,1855,1840,1846
309865,1855,1840,1850
309875,1869,1840,1859
309885,1863,1845,1863
309895,1867,1841,1863
309905,1861,1840,1869
309915,1868,1847,1872
309925,1874,1849,1872
309935,1869,1840,1871
309945,1863,1841,1866
309955,1865,1842,1863
309965,1868,1842,1861
309975,1863,1840,1859
309985,1847,1823,1845
309995,1872,1843,1872
310005,1902,1872,1891
310015,1857,1844,1851
310025,1857,1847,1850
310035,1840,1828,1834
310045,1851,1840,1840
310055,1845,1839,1840
310065,1841,1835,1831
310075,1843,1829,1826
310085,1840,1828,1829
310095,1835,1834,1828
310105,1837,1827,1814
310115,1838,1831,1825
310125,1840,1840,1831
310135,1840,1839,1831
310145,1856,1846,1846
310155,1849,1850,1837
310165,1846,1842,1839
310175,1845,1840,1835
310185,1842,1841,1834
310195,1840,1838,1833
310205,1840,1840,1829
310215,1840,1840,1828
310225,1846,1840,1830
310235,1840,1840,1833
310245,1840,1839,1833
310255,1851,1844,1838
310265,1843,1840,1838
310275,1848,1839,1840
310285,1851,1840,1843
310295,1843,1840,1836
310305,1853,1841,1841
310315,1850,1840,1840
310325,1851,1841,1839
310335,1850,1843,1838
310345,1854,1842,1840
310355,1847,1840,1838
310365,1850,1838,1841
310375,1847,1843,1839
310385,1844,1843,1840
310395,1847,1839,1840
310405,1843,1843,1840
310415,1845,1840,1836
310425,1847,1842,1840
310435,1846,1841,1840
310445,1847,1837,1840
310455,1851,1839,1840
310465,1842,1840,1838
310475,1849,1840,1837
310485,1853,1840,1840
310495,1851,1840,1837
310505,1842,1839,1838
310515,1848,1838,1835
310525,1846,1841,1830
310535,1855,1840,1836
310545,1849,1840,1838
310555,1847,1840,1837
310565,1852,1842,1840
310575,1857,1849,1843
310585,1858,1850,1845
310595,1863,1845,1846
310605,1872,1851,1853
310615,1869,1853,1855
310625,1872,1846,1861
310635,1872,1853,1858
310645,1876,1858,1869
310655,1878,1859,1867
310665,1875,1854,1872
310675,1883,1859,1876
310685,1873,1855,1873
310695,1882,1856,1871
310705,1872,1856,1871
310715,1874,1855,1870
310725,1875,1855,1870
310735,1872,1856,1867
310745,1872,1854,1865
310755,1871,1847,1859
310765,1868,1849,1854
310775,1871,1845,1854
310785,1865,1847,1851
310795,1861,1844,1849
310805,1860,1845,1854
310815,1854,1840,1848
310825,1855,1842,1842
310835,1851,1841,1838
310845,1850,1845,1841
310855,1855,1840,1840
310865,1845,1845,1840
310875,1846,1840,1837
310885,1853,1835,1835
310895,1847,1840,1834
310905,1844,1840,1830
310915,1844,1842,1831
310925,1849,1840,1838
310935,1842,1838,1838
310945,1843,1840,1835
310955,1852,1839,1840
310965,1850,1841,1835
310975,1850,1845,1840
310985,1854,1840,1838
310995,1850,1839,1840
311005,1851,1840,1841
311015,1852,1842,1840
311025,1844,1840,1840
311035,1856,1850,1846
311045,1856,1843,1835
311055,1853,1847,1841
311065,1850,1845,1840
311075,1852,1851,1841
311085,1854,1847,1840
311095,1856,1846,1842
311105,1855,1852,1845
311115,1852,1847,1846
311125,1853,1842,1847
311135,1856,1846,1850
311145,1853,1845,1849
311155,1853,1843,1851
311165,1860,1840,1854
311175,1854,1842,1850
311185,1850,1841,1852
311195,1841,1843,1847
311205,1846,1840,1846
311215,1847,1842,1841
311225,1854,1843,1843
311235,1853,1840,1840
311245,1854,1845,1841
311255,1850,1845,1840
311265,1853,1845,1843
311275,1853,1842,1840
311285,1856,1845,1840
311295,1855,1843,1842
311305,1853,1843,1846
311315,1861,1851,1853
311325,1862,1850,1856
311335,1863,1853,1856
311345,1872,1854,1867
311355,1873,1856,1862
311365,1873,1856,1869
311375,1872,1856,1874
311385,1878,1856,1873
311395,1885,1860,1874
311405,1875,1863,1873
311415,1879,1861,1875
311425,1878,1859,1873
311435,1877,1855,1879
311445,1882,1861,1872
311455,1872,1859,1868
311465,1873,1851,1866
311475,1873,1856,1866
311485,1872,1856,1862
311495,1869,1850,1863
311505,1868,1855,1865
311515,1862,1850,1859
311525,1860,1852,1857
311535,1857,1850,1856
311545,1861,1842,1851
311555,1856,1840,1851
311565,1851,1845,1841
311575,1853,1840,1846
311585,1857,1840,1846
311595,1856,1843,1841
311605,1842,1842,1840
311615,1845,1840,1841
311625,1850,1845,1840
311635,1850,1842,1839
311645,1851,1845,1840
311655,1850,1843,1845
311665,1855,1846,1840
311675,1850,1849,1840
311685,1853,1840,1845
311695,1845,1846,1845
311705,1853,1850,1846
311715,1855,1850,1847
311725,1855,1845,1840
311735,1855,1851,1849
311745,1850,1845,1843
311755,1840,1845,1840
311765,1856,1850,1842
311775,1856,1844,1843
311785,1851,1845,1845
311795,1849,1846,1841
311805,1855,1841,1844
311815,1854,1850,1845
311825,1854,1845,1841
311835,1850,1841,1846
311845,1852,1840,1841
311855,1853,1840,1843
311865,1848,1845,1837
311875,1851,1841,1840
311885,1849,1844,1841
311895,1853,1843,1840
311905,1845,1842,1843
311915,1855,1845,1841
311925,1851,1843,1842
311935,1850,1846,1840
311945,1847,1845,1840
311955,1850,1841,1841
311965,1847,1845,1843
311975,1849,1843,1842
311985,1849,1845,1849
311995,1858,1843,1840
312005,1860,1843,1842
312015,1856,1849,1847
312025,1859,1846,1850
312035,1856,1855,1853
312045,1865,1853,1857
312055,1866,1849,1856
312065,1869,1851,1862
312075,1874,1856,1871
312085,1874,1858,1874
312095,1877,1865,1872
312105,1872,1861,1874
312115,1879,1858,1875
312125,1881,1861,1874
312135,1878,1859,1879
312145,1882,1859,1873
312155,1874,1858,1877
312165,1875,1857,1872
312175,1879,1855,1869
312185,1873,1853,1866
312195,1870,1855,1872
312205,1872,1857,1869
312215,1871,1851,1860
312225,1871,1850,1861
312235,1861,1845,1853
312245,1862,1851,1858
312255,1859,1846,1846
312265,1856,1847,1843
312275,1856,1841,1853
312285,1853,1842,1843
312295,1846,1845,1841
312305,1850,1840,1840
312315,1855,1844,1840
312325,1844,1846,1839
312335,1847,1840,1840
312345,1844,1840,1840
312355,1849,1840,1839
312365,1843,1842,1841
312375,1847,1842,1841
312385,1847,1840,1841
312395,1842,1841,1845
312405,1849,1841,1840
312415,1852,1844,1842
312425,1847,1844,1840
312435,1851,1841,1839
312445,1853,1842,1838
312455,1856,1838,1841
312465,1848,1845,1842
312475,1857,1841,1841
312485,1857,1846,1841
312495,1854,1840,1841
312505,1856,1844,1843
312515,1856,1847,1843
312525,1851,1845,1843
312535,1853,1842,1843
312545,1851,1846,1849
312555,1854,1840,1842
312565,1853,1845,1839
312575,1858,1841,1840
312585,1852,1840,1842
312595,1853,1843,1843
312605,1853,1840,1840
312615,1850,1841,1840
312625,1842,1838,1841
312635,1847,1840,1840
312645,1846,1840,1841
312655,1849,1845,1839
312665,1850,1840,1842
312675,1850,1838,1840
312685,1845,1840,1840
312695,1850,1839,1839
312705,1845,1842,1838
312715,1850,1839,1842
312725,1846,1840,1840
312735,1849,1845,1837
312745,1851,1840,1840
312755,1850,1839,1839
312765,1855,1835,1840
312775,1855,1840,1840
312785,1857,1847,1843
312795,1858,1842,1849
312805,1862,1847,1850
312815,1866,1848,1847
312825,1871,1855,1855
312835,1872,1845,1858
312845,1872,1855,1869
312855,1875,1850,1867
312865,1875,1857,1871
312875,1872,1851,1869
312885,1881,1857,1863
312895,1873,1850,1868
312905,1872,1857,1863
312915,1873,1853,1867
312925,1872,1854,1863
312935,1872,1851,1858
312945,1870,1855,1863
312955,1871,1851,1853
312965,1863,1851,1853
312975,1867,1843,1848
312985,1856,1844,1849
312995,1858,1845,1846
313005,1854,1840,1840
313015,1851,1845,1837
313025,1845,1843,1840
313035,1854,1841,1839
313045,1858,1843,1838
313055,1848,1839,1834
313065,1847,1840,1830
313075,1853,1840,1839
313085,1851,1840,1835
313095,1842,1840,1834
313105,1850,1842,1838
313115,1847,1840,1834
313125,1847,1840,1839
313135,1844,1842,1838
313145,1844,1846,1839
313155,1842,1844,1840
313165,1854,1840,1839
313175,1854,1840,1840
313185,1851,1842,1840
313195,1850,1843,1841
313205,1855,1842,1840
313215,1855,1841,1838
313225,1849,1840,1838
313235,1847,1842,1842
313245,1853,1841,1840
313255,1856,1846,1840
313265,1853,1847,1839
313275,1846,1841,1840
313285,1849,1842,1840
313295,1847,1847,1837
313305,1847,1843,1840
313315,1850,1845,1838
313325,1849,1840,1840
313335,1849,1845,1839
313345,1847,1844,1839
313355,1842,1838,1836
313365,1850,1840,1839
313375,1851,1843,1839
313385,1850,1842,1837
313395,1850,1840,1842
313405,1851,1840,1839
313415,1849,1845,1838
313425,1846,1839,1836
313435,1843,1842,1839
313445,1851,1837,1830
313455,1843,1843,1835
313465,1849,1839,1834
313475,1851,1837,1840
313485,1846,1843,1838
313495,1855,1846,1840
313505,1859,1842,1844
313515,1851,1847,1843
313525,1866,1856,1847
313535,1867,1849,1850
313545,1866,1853,1856
313555,1865,1857,1858
313565,1873,1855,1859
313575,1872,1856,1860
313585,1874,1857,1871
313595,1874,1862,1865
313605,1879,1859,1870
313615,1872,1857,1872
313625,1878,1863,1871
313635,1876,1867,1872
313645,1873,1858,1861
313655,1871,1857,1863
313665,1871,1859,1868
313675,1870,1855,1859
313685,1872,1858,1851
313695,1865,1853,1853
313705,1867,1845,1855
313715,1860,1846,1854
313725,1847,1846,1845
313735,1860,1852,1847
313745,1853,1841,1849
313755,1849,1843,1843
313765,1851,1845,1840
313775,1847,1840,1840
313785,1849,1843,1841
313795,1845,1845,1838
313805,1844,1840,1840
313815,1849,1842,1840
313825,1851,1837,1840
313835,1850,1846,1833
313845,1850,1843,1843
313855,1845,1845,1840
313865,1849,1840,1840
313875,1851,1840,1843
313885,1849,1845,1841
313895,1855,1840,1841
313905,1855,1840,1840
313915,1852,1845,1842
313925,1855,1850,1841
313935,1855,1841,1839
313945,1850,1848,1840
313955,1849,1845,1840
313965,1851,1840,1841
313975,1847,1847,1841
313985,1851,1849,1844
313995,1851,1847,1840
314005,1849,1846,1827
314015,1844,1842,1838
314025,1853,1847,1840
314035,1849,1841,1840
314045,1849,1841,1843
314055,1850,1842,1840
314065,1851,1841,1841
314075,1853,1851,1840
314085,1851,1843,1843
314095,1849,1840,1846
314105,1856,1845,1831
314115,1853,1841,1840
314125,1853,1840,1842
314135,1849,1841,1838
314145,1851,1840,1837
314155,1851,1842,1839
314165,1850,1840,1841
314175,1846,1838,1838
314185,1846,1843,1843
314195,1851,1852,1840
314205,1850,1847,1837
314215,1846,1845,1843
314225,1853,1840,1839
314235,1854,1840,1840
314245,1854,1843,1839
314255,1856,1841,1857
314265,1862,1855,1847
314275,1858,1855,1856
314285,1859,1849,1859
314295,1869,1856,1855
314305,1872,1855,1856
314315,1874,1856,1859
314325,1873,1858,1866
314335,1872,1864,1867
314345,1874,1861,1872
314355,1870,1857,1872
314365,1870,1859,1872
314375,1872,1857,1871
314385,1869,1859,1867
314395,1877,1856,1866
314405,1872,1856,1868
314415,1869,1853,1858
314425,1873,1857,1863
314435,1863,1856,1863
314445,1869,1854,1858
314455,1870,1851,1854
314465,1859,1853,1856
314475,1863,1846,1851
314485,1856,1845,1854
314495,1851,1845,1845
314505,1854,1847,1846
314515,1846,1846,1842
314525,1851,1840,1846
314535,1845,1841,1839
314545,1855,1841,1840
314555,1849,1840,1840
314565,1849,1841,1838
314575,1847,1841,1840
314585,1847,1840,1840
314595,1846,1841,1843
314605,1842,1851,1846
314615,1855,1843,1852
314625,1853,1846,1849
314635,1851,1844,1850
314645,1854,1853,1842
314655,1855,1849,1849
314665,1855,1846,1850
314675,1851,1852,1851
314685,1856,1847,1846
314695,1853,1840,1850
314705,1849,1840,1842
314715,1850,1841,1851
314725,1855,1842,1847
314735,1859,1844,1850
314745,1851,1850,1846
314755,1856,1841,1853
314765,1855,1851,1844
314775,1846,1845,1841
314785,1856,1844,1846
314795,1855,1847,1841
314805,1855,1845,1842
314815,1862,1841,1844
314825,1855,1853,1843
314835,1843,1849,1841
314845,1853,1848,1846
314855,1853,1842,1842
314865,1851,1842,1845
314875,1849,1853,1846
314885,1855,1843,1845
314895,1839,1846,1843
314905,1853,1846,1850
314915,1847,1847,1842
314925,1841,1843,1842
314935,1855,1840,1842
314945,1847,1847,1847
314955,1855,1843,1842
314965,1847,1845,1843
314975,1850,1840,1837
314985,1851,1847,1842
314995,1861,1843,1846
315005,1850,1843,1849
315015,1861,1850,1846
315025,1862,1841,1849
315035,1872,1854,1855
315045,1867,1846,1854
315055,1867,1857,1858
315065,1870,1858,1856
315075,1869,1851,1862
315085,1872,1858,1869
315095,1872,1857,1869
315105,1874,1856,1869
315115,1872,1859,1872
315125,1870,1857,1872
315135,1869,1859,1866
315145,1872,1853,1872
315155,1870,1854,1859
315165,1865,1849,1866
315175,1867,1856,1867
315185,1865,1850,1856
315195,1861,1852,1862
315205,1863,1842,1861
315215,1855,1847,1856
315225,1860,1841,1849
315235,1857,1844,1851
315245,1852,1842,1856
315255,1854,1841,1841
315265,1853,1840,1842
315275,1847,1840,1841
315285,1847,1840,1840
315295,1843,1840,1840
315305,1843,1838,1843
315315,1849,1839,1840
315325,1843,1840,1840
315335,1842,1838,1837
315345,1851,1838,1841
315355,1846,1840,1840
315365,1855,1840,1834
315375,1847,1841,1842
315385,1853,1842,1840
315395,1842,1840,1840
315405,1853,1840,1842
315415,1854,1845,1846
315425,1847,1841,1842
315435,1848,1841,1844
315445,1849,1842,1843
315455,1849,1842,1843
315465,1850,1845,1846
315475,1851,1842,1846
315485,1852,1841,1840
315495,1855,1845,1840
315505,1853,1840,1846
315515,1849,1841,1844
315525,1851,1840,1840
315535,1850,1840,1844
315545,1851,1841,1847
315555,1850,1847,1843
315565,1855,1840,1841
315575,1851,1846,1843
315585,1852,1839,1847
315595,1852,1845,1842
315605,1847,1840,1843
315615,1853,1841,1841
315625,1850,1841,1842
315635,1853,1840,1841
315645,1850,1840,1840
315655,1852,1841,1840
315665,1847,1842,1840
315675,1854,1842,1846
315685,1850,1840,1842
315695,1846,1842,1843
315705,1851,1843,1840
315715,1850,1840,1842
315725,1851,1840,1841
315735,1854,1841,1842
315745,1855,1845,1849
315755,1854,1840,1849
315765,1858,1843,1851
315775,1856,1855,1853
315785,1863,1849,1853
315795,1867,1854,1858
315805,1872,1856,1862
315815,1872,1853,1864
315825,1867,1863,1869
315835,1872,1857,1872
315845,1878,1856,1873
315855,1878,1863,1881
315865,1872,1865,1881
315875,1879,1861,1883
315885,1875,1863,1873
315895,1875,1861,1877
315905,1872,1857,1878
315915,1868,1856,1875
315925,1863,1856,1867
315935,1866,1850,1872
315945,1865,1857,1863
315955,1858,1850,1866
315965,1869,1850,1861
315975,1858,1847,1854
315985,1862,1846,1859
315995,1861,1843,1854
316005,1852,1846,1856
316015,1853,1840,1851
316025,1854,1843,1849
316035,1853,1840,1853
316045,1846,1835,1843
316055,1852,1840,1847
316065,1852,1840,1845
316075,1854,1837,1840
316085,1852,1837,1846
316095,1852,1842,1842
316105,1855,1840,1844
316115,1856,1842,1840
316125,1855,1845,1849
316135,1859,1849,1845
316145,1859,1851,1847
316155,1857,1847,1853
316165,1855,1847,1854
316175,1857,1847,1853
316185,1858,1849,1854
316195,1859,1850,1849
316205,1858,1849,1851
316215,1858,1850,1853
316225,1859,1854,1847
316235,1853,1846,1852
316245,1852,1845,1855
316255,1857,1842,1852
316265,1855,1851,1849
316275,1850,1847,1853
316285,1853,1849,1855
316295,1854,1840,1850
316305,1857,1847,1849
316315,1854,1851,1849
316325,1853,1843,1854
316335,1855,1846,1845
316345,1851,1853,1851
316355,1854,1849,1847
316365,1851,1850,1849
316375,1853,1851,1851
316385,1855,1846,1845
316395,1860,1846,1854
316405,1856,1851,1850
316415,1855,1846,1850
316425,1853,1841,1851
316435,1855,1840,1843
316445,1850,1850,1843
316455,1857,1849,1852
316465,1855,1841,1854
316475,1856,1843,1845
316485,1859,1843,1857
316495,1863,1844,1855
316505,1863,1845,1857
316515,1863,1854,1863
316525,1863,1857,1866
316535,1866,1858,1863
316545,1872,1859,1872
316555,1872,1856,1871
316565,1875,1859,1873
316575,1872,1861,1879
316585,1870,1860,1883
316595,1877,1859,1879
316605,1874,1863,1878
316615,1877,1855,1884
316625,1872,1858,1879
316635,1874,1860,1883
316645,1874,1861,1874
316655,1867,1853,1877
316665,1870,1859,1874
316675,1867,1856,1872
316685,1870,1856,1872
316695,1867,1853,1865
316705,1858,1846,1869
316715,1867,1845,1861
316725,1861,1842,1856
316735,1857,1846,1855
316745,1855,1847,1847
316755,1856,1845,1846
316765,1852,1842,1853
316775,1854,1841,1845
316785,1852,1847,1842
316795,1851,1840,1850
316805,1854,1840,1840
316815,1854,1841,1840
316825,1850,1843,1847
316835,1853,1839,1841
316845,1851,1839,1840
316855,1855,1839,1843
316865,1847,1840,1846
316875,1854,1840,1847
316885,1850,1840,1853
316895,1858,1845,1851
316905,1856,1838,1856
316915,1856,1843,1853
316925,1859,1841,1856
316935,1858,1841,1854
316945,1861,1842,1849
316955,1860,1847,1851
316965,1852,1845,1853
316975,1852,1843,1852
316985,1854,1846,1845
316995,1855,1840,1852
317005,1852,1846,1850
317015,1856,1845,1853
317025,1853,1839,1851
317035,1856,1843,1840
317045,1856,1845,1855
317055,1854,1840,1843
317065,1847,1840,1841
317075,1847,1839,1846
317085,1853,1838,1850
317095,1847,1843,1841
317105,1852,1840,1847
317115,1847,1839,1846
317125,1850,1837,1849
317135,1853,1840,1845
317145,1856,1840,1847
317155,1851,1839,1842
317165,1851,1839,1842
317175,1854,1840,1847
317185,1843,1843,1846
317195,1846,1841,1843
317205,1851,1841,1843
317215,1850,1842,1840
317225,1854,1840,1846
317235,1851,1840,1841
317245,1847,1848,1842
317255,1847,1840,1847
317265,1857,1842,1851
317275,1856,1844,1846
317285,1859,1847,1856
317295,1869,1846,1858
317305,1870,1845,1862
317315,1871,1850,1870
317325,1871,1853,1870
317335,1875,1846,1873
317345,1873,1852,1879
317355,1872,1855,1875
317365,1874,1857,1879
317375,1873,1854,1879
317385,1875,1856,1872
317395,1877,1859,1878
317405,1874,1854,1874
317415,1875,1852,1872
317425,1875,1847,1871
317435,1871,1856,1868
317445,1862,1846,1871
317455,1867,1854,1871
317465,1859,1842,1859
317475,1861,1843,1857
317485,1862,1844,1857
317495,1859,1846,1856
317505,1856,1840,1846
317515,1854,1840,1846
317525,1858,1841,1841
317535,1859,1842,1839
317545,1852,1840,1840
317555,1856,1839,1843
317565,1844,1840,1840
317575,1850,1839,1840
317585,1853,1840,1841
317595,1845,1840,1839
317605,1847,1840,1843
317615,1851,1839,1844
317625,1846,1837,1843
317635,1856,1839,1846
317645,1856,1843,1843
317655,1851,1839,1842
317665,1853,1840,1845
317675,1854,1840,1843
317685,1845,1839,1840
317695,1849,1840,1843
317705,1849,1840,1843
317715,1859,1838,1841
317725,1850,1843,1842
317735,1851,1835,1840
317745,1853,1838,1840
317755,1851,1835,1843
317765,1851,1840,1843
317775,1843,1840,1838
317785,1851,1831,1839
317795,1853,1840,1840
317805,1850,1840,1841
317815,1853,1840,1840
317825,1850,1839,1840
317835,1846,1841,1837
317845,1851,1842,1839
317855,1855,1835,1840
317865,1850,1840,1839
317875,1849,1843,1835
317885,1843,1840,1835
317895,1852,1838,1837
317905,1850,1839,1840
317915,1844,1838,1839
317925,1856,1840,1839
317935,1845,1840,1840
317945,1843,1840,1839
317955,1851,1839,1839
317965,1856,1835,1840
317975,1851,1837,1839
317985,1851,1839,1838
317995,1843,1840,1837
318005,1845,1839,1840
318015,1857,1842,1839
318025,1851,1840,1842
318035,1854,1841,1841
318045,1854,1842,1840
318055,1853,1840,1842
318065,1856,1840,1851
318075,1862,1842,1851
318085,1863,1849,1859
318095,1872,1849,1861
318105,1872,1847,1861
318115,1871,1850,1868
318125,1872,1854,1869
318135,1873,1849,1879
318145,1877,1850,1873
318155,1870,1856,1872
318165,1873,1856,1872
318175,1872,1853,1874
318185,1875,1856,1875
318195,1879,1855,1874
318205,1876,1850,1869
318215,1872,1847,1870
318225,1870,1847,1871
318235,1872,1850,1862
318245,1866,1849,1859
318255,1861,1845,1855
318265,1858,1842,1854
318275,1857,1841,1847
318285,1856,1840,1846
318295,1856,1840,1843
318305,1851,1840,1846
318315,1854,1837,1842
318325,1857,1840,1837
318335,1847,1839,1839
318345,1851,1840,1840
318355,1854,1840,1834
318365,1847,1840,1831
318375,1850,1842,1840
318385,1847,1841,1840
318395,1855,1842,1837
318405,1851,1843,1840
318415,1851,1843,1837
318425,1853,1835,1843
318435,1853,1842,1841
318445,1850,1843,1846
318455,1855,1846,1842
318465,1849,1844,1842
318475,1849,1844,1841
318485,1854,1849,1845
318495,1847,1840,1846
318505,1847,1842,1849
318515,1858,1842,1841
318525,1854,1842,1842
318535,1844,1842,1842
318545,1854,1845,1847
318555,1851,1846,1847
318565,1849,1847,1844
318575,1850,1847,1850
318585,1854,1840,1847
318595,1847,1840,1847
318605,1845,1845,1847
318615,1849,1841,1843
318625,1853,1849,1842
318635,1849,1843,1840
318645,1847,1839,1841
318655,1850,1840,1841
318665,1843,1844,1842
318675,1850,1841,1846
318685,1841,1840,1841
318695,1845,1839,1840
318705,1851,1843,1840
318715,1843,1840,1840
318725,1845,1842,1843
318735,1850,1841,1845
318745,1842,1840,1842
318755,1846,1840,1840
318765,1848,1844,1840
318775,1855,1843,1841
318785,1852,1847,1840
318795,1850,1852,1851
318805,1851,1853,1843
318815,1862,1845,1850
318825,1858,1847,1854
318835,1857,1850,1857
318845,1864,1851,1862
318855,1871,1845,1862
318865,1870,1847,1869
318875,1877,1855,1872
318885,1877,1857,1872
318895,1875,1852,1876
318905,1879,1860,1879
318915,1885,1857,1884
318925,1879,1861,1883
318935,1882,1856,1883
318945,1875,1851,1874
318955,1878,1854,1873
318965,1878,1853,1876
318975,1872,1847,1878
318985,1871,1851,1872
318995,1873,1851,1872
319005,1865,1854,1867
319015,1858,1850,1858
319025,1871,1849,1860
319035,1868,1847,1858
319045,1854,1845,1853
319055,1859,1847,1851
319065,1857,1843,1850
319075,1851,1847,1845
319085,1849,1843,1845
319095,1846,1842,1842
319105,1849,1843,1840
319115,1845,1845,1840
319125,1849,1847,1839
319135,1846,1840,1833
319145,1852,1843,1841
319155,1845,1840,1837
319165,1851,1845,1846
319175,1851,1842,1840
319185,1853,1845,1846
319195,1845,1847,1841
319205,1856,1842,1841
319215,1852,1843,1843
319225,1858,1841,1840
319235,1850,1848,1850
319245,1851,1839,1840
319255,1856,1844,1842
319265,1856,1843,1843
319275,1858,1840,1842
319285,1855,1840,1841
319295,1851,1842,1842
319305,1851,1841,1840
319315,1853,1846,1843
319325,1849,1847,1841
319335,1854,1841,1843
319345,1854,1840,1841
319355,1853,1843,1846
319365,1855,1839,1847
319375,1843,1840,1849
319385,1856,1841,1842
319395,1851,1840,1845
319405,1843,1843,1842
319415,1849,1846,1845
319425,1846,1840,1847
319435,1847,1842,1847
319445,1858,1840,1841
319455,1851,1843,1846
319465,1851,1844,1841
319475,1842,1840,1841
319485,1845,1842,1841
319495,1850,1838,1840
319505,1845,1840,1840
319515,1847,1846,1840
319525,1851,1840,1840
319535,1843,1840,1840
319545,1849,1840,1839
319555,1856,1839,1840
319565,1853,1840,1834
319575,1843,1842,1840
319585,1851,1841,1840
319595,1850,1840,1843
319605,1856,1836,1842
319615,1855,1841,1840
319625,1856,1843,1852
319635,1861,1843,1849
319645,1869,1843,1853
319655,1863,1849,1858
319665,1872,1842,1863
319675,1872,1850,1868
319685,1872,1849,1874
319695,1875,1861,1872
319705,1876,1852,1871
319715,1876,1854,1874
319725,1875,1851,1874
319735,1877,1856,1874
319745,1875,1849,1875
319755,1872,1856,1860
319765,1873,1849,1871
319775,1871,1851,1862
319785,1872,1851,1859
319795,1867,1847,1856
319805,1863,1846,1846
319815,1861,1845,1851
319825,1855,1845,1858
319835,1856,1842,1848
319845,1856,1843,1839
319855,1855,1843,1842
319865,1855,1837,1835
319875,1850,1842,1839
319885,1850,1838,1839
319895,1853,1839,1845
319905,1843,1841,1834
319915,1847,1840,1834
319925,1854,1838,1839
319935,1843,1837,1840
319945,1852,1840,1837
319955,1850,1840,1838
319965,1845,1840,1842
319975,1846,1843,1840
319985,1853,1842,1840
319995,1856,1841,1840
320005,1851,1840,1840
320015,1851,1840,1841
320025,1854,1840,1843
320035,1853,1845,1840
320045,1849,1840,1843
320055,1853,1845,1843
320065,1854,1851,1840
320075,1855,1845,1845
320085,1856,1841,1840
320095,1850,1843,1843
320105,1856,1848,1840
320115,1851,1845,1843
320125,1851,1842,1840
320135,1853,1847,1840
320145,1852,1840,1840
320155,1847,1843,1841
320165,1851,1842,1838
320175,1853,1840,1840
320185,1853,1840,1841
320195,1851,1840,1841
320205,1851,1841,1840
320215,1847,1840,1839
320225,1846,1840,1840
320235,1851,1843,1840
320245,1847,1840,1841
320255,1857,1843,1835
320265,1854,1840,1841
320275,1851,1842,1840
320285,1858,1842,1839
320295,1841,1843,1839
320305,1849,1846,1840
320315,1854,1840,1840
320325,1850,1841,1840
320335,1854,1844,1840
320345,1846,1840,1840
320355,1855,1840,1839
320365,1850,1840,1840
320375,1858,1840,1838
320385,1855,1847,1844
320395,1860,1843,1850
320405,1870,1853,1853
320415,1866,1851,1856
320425,1872,1851,1861
320435,1872,1853,1868
320445,1872,1855,1865
320455,1879,1858,1872
320465,1872,1863,1872
320475,1877,1858,1878
320485,1886,1857,1875
320495,1879,1858,1872
320505,1878,1855,1872
320515,1883,1856,1871
320525,1879,1855,1872
320535,1870,1856,1870
320545,1875,1858,1862
320555,1865,1849,1856
320565,1870,1854,1856
320575,1862,1843,1856
320585,1863,1846,1854
320595,1860,1850,1851
320605,1853,1844,1846
320615,1855,1850,1841
320625,1856,1847,1850
320635,1857,1850,1840
320645,1842,1845,1840
320655,1856,1846,1842
320665,1846,1845,1840
320675,1850,1844,1836
320685,1850,1842,1838
320695,1851,1848,1840
320705,1851,1844,1843
320715,1855,1840,1840
320725,1854,1839,1840
320735,1850,1841,1848
320745,1847,1844,1841
320755,1851,1841,1839
320765,1850,1846,1842
320775,1850,1840,1843
320785,1853,1842,1842
320795,1850,1841,1840
320805,1853,1845,1841
320815,1856,1850,1851
320825,1850,1846,1843
320835,1854,1846,1849
320845,1855,1843,1850
320855,1854,1846,1847
320865,1855,1846,1847
320875,1857,1843,1842
320885,1850,1844,1841
320895,1855,1845,1849
320905,1852,1842,1843
320915,1851,1845,1842
320925,1856,1843,1845
320935,1856,1847,1847
320945,1856,1843,1841
320955,1846,1842,1843
320965,1847,1841,1847
320975,1849,1840,1850
320985,1849,1845,1841
320995,1847,1839,1841
321005,1850,1841,1843
321015,1852,1838,1845
321025,1849,1851,1845
321035,1849,1841,1844
321045,1853,1855,1843
321055,1850,1845,1841
321065,1846,1840,1840
321075,1843,1849,1842
321085,1845,1844,1841
321095,1847,1843,1839
321105,1846,1840,1840
321115,1855,1845,1842
321125,1847,1846,1849
321135,1851,1849,1851
321145,1845,1847,1854
321155,1856,1850,1857
321165,1863,1845,1858
321175,1867,1851,1858
321185,1871,1853,1865
321195,1872,1857,1870
321205,1872,1856,1875
321215,1872,1856,1879
321225,1873,1853,1878
321235,1872,1856,1883
321245,1875,1857,1882
321255,1881,1856,1883
321265,1886,1858,1881
321275,1875,1857,1882
321285,1875,1853,1880
321295,1875,1856,1877
321305,1869,1851,1873
321315,1874,1851,1872
321325,1874,1847,1867
321335,1872,1851,1866
321345,1867,1854,1869
321355,1868,1853,1861
321365,1858,1843,1859
321375,1860,1846,1856
321385,1859,1844,1855
321395,1853,1851,1850
321405,1845,1847,1847
321415,1844,1847,1843
321425,1847,1841,1840
321435,1850,1840,1841
321445,1853,1845,1845
321455,1853,1843,1842
321465,1842,1841,1840
321475,1842,1840,1846
321485,1851,1840,1841
321495,1848,1840,1845
321505,1851,1847,1840
321515,1853,1843,1840
321525,1856,1851,1842
321535,1847,1847,1850
321545,1852,1853,1846
321555,1855,1847,1846
321565,1851,1854,1849
321575,1857,1847,1854
321585,1855,1845,1845
321595,1857,1845,1852
321605,1850,1851,1854
321615,1850,1847,1852
