timestamp_ms_device,ppg_finger1,ppg_finger2,ppg_finger3
,1859,1846,1854
1618244,1860,1855,1855
1618254,1862,1855,1852
1618264,1866,1856,1857
1618274,1869,1854,1858
1618284,1872,1856,1862
1618294,1875,1856,1867
1618304,1878,1858,1871
1618314,1889,1861,1874
1618324,1894,1863,1881
1618334,1895,1867,1887
1618344,1899,1867,1885
1618354,1893,1867,1889
1618364,1893,1870,1891
1618374,1891,1866,1892
1618384,1890,1871,1889
1618394,1886,1867,1890
1618404,1883,1865,1886
1618414,1879,1868,1884
1618424,1879,1868,1878
1618434,1876,1862,1872
1618444,1874,1861,1875
1618454,1872,1856,1872
1618464,1872,1857,1871
1618474,1872,1858,1871
1618484,1871,1853,1863
1618494,1866,1853,1860
1618504,1858,1853,1858
1618514,1861,1849,1857
1618524,1859,1856,1853
1618534,1855,1853,1847
1618544,1857,1853,1847
1618554,1855,1847,1849
1618564,1856,1854,1847
1618574,1853,1850,1843
1618584,1859,1854,1850
1618594,1858,1853,1857
1618604,1860,1855,1851
1618614,1861,1853,1855
1618624,1859,1852,1853
1618634,1863,1853,1856
1618644,1862,1856,1850
1618654,1867,1855,1859
1618664,1869,1855,1856
1618674,1861,1856,1856
1618684,1865,1856,1857
1618694,1867,1851,1856
1618704,1863,1856,1855
1618714,1858,1856,1855
1618724,1857,1852,1855
1618734,1861,1855,1846
1618744,1857,1853,1852
1618754,1853,1852,1847
1618764,1855,1854,1847
1618774,1855,1853,1843
1618784,1855,1855,1847
1618794,1856,1856,1846
1618804,1855,1854,1845
1618814,1856,1856,1854
1618824,1855,1849,1853
1618834,1857,1851,1854
1618844,1857,1854,1846
1618854,1857,1855,1847
1618864,1857,1854,1853
1618874,1860,1856,1847
1618884,1865,1854,1853
1618894,1865,1852,1855
1618904,1862,1854,1853
1618914,1867,1851,1849
1618924,1869,1852,1854
1618934,1865,1855,1854
1618944,1871,1851,1854
1618954,1869,1853,1856
1618964,1867,1855,1853
1618974,1868,1854,1855
1618984,1867,1856,1849
1618994,1863,1856,1851
1619004,1862,1854,1854
1619014,1861,1855,1852
1619024,1864,1852,1851
1619034,1861,1851,1852
1619044,1860,1854,1849
1619054,1858,1855,1850
1619064,1859,1851,1851
1619074,1859,1857,1851
1619084,1857,1856,1849
1619094,1858,1853,1850
1619104,1858,1853,1847
1619114,1861,1851,1851
1619124,1863,1855,1856
1619134,1870,1853,1853
1619144,1872,1857,1857
1619154,1875,1859,1867
1619164,1882,1858,1866
1619174,1888,1861,1873
1619184,1893,1863,1873
1619194,1895,1866,1877
1619204,1901,1867,1883
1619214,1903,1867,1888
1619224,1901,1871,1891
1619234,1902,1871,1889
1619244,1898,1870,1888
1619254,1893,1866,1885
1619264,1890,1870,1886
1619274,1886,1866,1886
1619284,1885,1863,1878
1619294,1882,1867,1878
1619304,1879,1861,1876
1619314,1875,1859,1872
1619324,1873,1859,1872
1619334,1872,1860,1863
1619344,1871,1857,1866
1619354,1867,1857,1859
1619364,1863,1856,1857
1619374,1863,1853,1855
1619384,1859,1850,1853
1619394,1858,1853,1853
1619404,1856,1851,1850
1619414,1858,1851,1845
1619424,1857,1853,1847
1619434,1861,1849,1843
1619444,1860,1851,1845
1619454,1859,1852,1845
1619464,1864,1853,1854
1619474,1864,1856,1851
1619484,1861,1855,1856
1619494,1869,1855,1855
1619504,1865,1856,1854
1619514,1867,1857,1854
1619524,1871,1857,1850
1619534,1867,1856,1858
1619544,1870,1856,1857
1619554,1869,1856,1854
1619564,1872,1855,1854
1619574,1871,1857,1853
1619584,1868,1853,1854
1619594,1865,1854,1853
1619604,1864,1855,1853
1619614,1861,1856,1852
1619624,1863,1855,1850
1619634,1861,1853,1851
1619644,1863,1853,1843
1619654,1865,1850,1851
1619664,1859,1855,1850
1619674,1857,1854,1842
1619684,1861,1854,1847
1619694,1861,1854,1845
1619704,1860,1854,1851
1619714,1863,1854,1853
1619724,1859,1851,1853
1619734,1859,1851,1845
1619744,1858,1853,1847
1619754,1861,1854,1851
1619764,1861,1852,1849
1619774,1860,1854,1849
1619784,1861,1856,1851
1619794,1865,1856,1849
1619804,1859,1856,1854
1619814,1863,1856,1855
1619824,1862,1854,1854
1619834,1861,1854,1853
1619844,1861,1853,1853
1619854,1858,1856,1852
1619864,1861,1856,1854
1619874,1862,1853,1846
1619884,1860,1855,1850
1619894,1866,1854,1854
1619904,1861,1856,1854
1619914,1861,1854,1855
1619924,1861,1855,1850
1619934,1859,1847,1846
1619944,1857,1854,1850
1619954,1862,1854,1851
1619964,1858,1855,1855
1619974,1865,1855,1852
1619984,1861,1854,1846
1619994,1863,1855,1850
1620004,1866,1855,1851
1620014,1865,1855,1853
1620024,1866,1855,1856
1620034,1869,1855,1858
1620044,1876,1856,1862
1620054,1881,1861,1861
1620064,1887,1865,1872
1620074,1896,1870,1877
1620084,1899,1868,1878
1620094,1903,1870,1883
1620104,1901,1871,1887
1620114,1904,1873,1887
1620124,1904,1869,1897
1620134,1902,1869,1894
1620144,1904,1870,1890
1620154,1899,1871,1888
1620164,1892,1867,1885
1620174,1885,1863,1883
1620184,1885,1867,1876
1620194,1883,1863,1875
1620204,1883,1862,1877
1620214,1877,1859,1871
1620224,1872,1858,1872
1620234,1872,1857,1863
1620244,1869,1856,1866
1620254,1869,1853,1865
1620264,1867,1854,1861
1620274,1859,1853,1856
1620284,1858,1852,1853
1620294,1857,1856,1851
1620304,1858,1851,1851
1620314,1856,1851,1851
1620324,1857,1853,1846
1620334,1861,1850,1851
1620344,1858,1854,1851
1620354,1859,1852,1850
1620364,1864,1853,1849
1620374,1859,1851,1850
1620384,1862,1853,1854
1620394,1861,1854,1850
1620404,1865,1855,1853
1620414,1861,1856,1855
1620424,1865,1856,1854
1620434,1855,1851,1855
1620444,1856,1856,1857
1620454,1856,1851,1853
1620464,1856,1854,1847
1620474,1858,1853,1851
1620484,1862,1855,1851
1620494,1855,1853,1847
1620504,1857,1853,1847
1620514,1855,1851,1848
1620524,1857,1851,1847
1620534,1855,1851,1854
1620544,1855,1853,1850
1620554,1857,1852,1847
1620564,1856,1853,1849
1620574,1859,1850,1854
1620584,1861,1854,1847
1620594,1858,1855,1852
1620604,1861,1856,1850
1620614,1860,1855,1849
1620624,1859,1854,1850
1620634,1862,1856,1850
1620644,1859,1855,1851
1620654,1865,1855,1854
1620664,1857,1854,1855
1620674,1858,1853,1851
1620684,1857,1856,1853
1620694,1861,1853,1854
1620704,1862,1855,1853
1620714,1858,1857,1850
1620724,1860,1856,1855
1620734,1857,1856,1853
1620744,1863,1855,1852
1620754,1863,1856,1855
1620764,1856,1851,1852
1620774,1858,1852,1854
1620784,1856,1847,1855
1620794,1857,1853,1853
1620804,1858,1855,1852
1620814,1865,1855,1854
1620824,1856,1853,1851
1620834,1861,1855,1853
1620844,1862,1854,1850
1620854,1861,1855,1852
1620864,1868,1853,1854
1620874,1872,1854,1858
1620884,1872,1856,1857
1620894,1875,1856,1867
1620904,1878,1858,1870
1620914,1888,1859,1872
1620924,1891,1869,1878
1620934,1895,1871,1886
1620944,1899,1866,1887
1620954,1895,1863,1888
1620964,1898,1870,1891
1620974,1896,1866,1888
1620984,1894,1866,1890
1620994,1885,1866,1887
1621004,1885,1866,1886
1621014,1881,1866,1883
1621024,1875,1862,1885
1621034,1873,1863,1873
1621044,1872,1859,1875
1621054,1872,1857,1870
1621064,1871,1861,1869
1621074,1870,1856,1865
1621084,1865,1855,1863
1621094,1862,1854,1862
1621104,1858,1853,1859
1621114,1859,1855,1854
1621124,1853,1854,1850
1621134,1856,1856,1853
1621144,1856,1851,1847
1621154,1858,1852,1845
1621164,1856,1851,1845
1621174,1857,1856,1849
1621184,1857,1854,1851
1621194,1860,1855,1847
1621204,1866,1853,1852
1621214,1863,1853,1855
1621224,1861,1855,1856
1621234,1863,1853,1852
1621244,1861,1854,1859
1621254,1862,1854,1859
1621264,1867,1856,1855
1621274,1867,1857,1859
1621284,1867,1854,1858
1621294,1861,1858,1854
1621304,1862,1856,1858
1621314,1862,1855,1855
1621324,1865,1856,1854
1621334,1861,1852,1853
1621344,1863,1855,1854
1621354,1860,1855,1856
1621364,1855,1853,1850
1621374,1860,1851,1847
1621384,1861,1854,1850
1621394,1857,1856,1851
1621404,1861,1856,1850
1621414,1862,1853,1850
1621424,1859,1854,1850
1621434,1857,1852,1850
1621444,1861,1857,1849
1621454,1857,1851,1847
1621464,1859,1852,1849
1621474,1866,1853,1847
1621484,1862,1853,1856
1621494,1866,1856,1851
1621504,1863,1856,1846
1621514,1865,1856,1854
1621524,1863,1857,1853
1621534,1863,1855,1855
1621544,1860,1856,1850
1621554,1861,1851,1857
1621564,1862,1851,1854
1621574,1862,1856,1854
1621584,1861,1851,1850
1621594,1861,1853,1856
1621604,1867,1855,1851
1621614,1863,1854,1849
1621624,1859,1856,1849
1621634,1863,1850,1855
1621644,1861,1854,1853
1621654,1858,1854,1852
1621664,1859,1855,1853
1621674,1862,1851,1853
1621684,1858,1854,1855
1621694,1863,1856,1851
1621704,1865,1855,1855
1621714,1861,1857,1846
1621724,1862,1853,1853
1621734,1865,1856,1856
1621744,1859,1854,1855
1621754,1859,1856,1855
1621764,1863,1853,1856
1621774,1862,1853,1855
1621784,1858,1853,1856
1621794,1862,1853,1846
1621804,1860,1853,1855
1621814,1861,1855,1849
1621824,1867,1855,1856
1621834,1866,1856,1853
1621844,1862,1853,1851
1621854,1869,1857,1856
1621864,1863,1856,1855
1621874,1867,1854,1856
1621884,1872,1853,1858
1621894,1872,1859,1861
1621904,1879,1858,1867
1621914,1885,1857,1863
1621924,1893,1863,1872
1621934,1894,1862,1872
1621945,1895,1866,1879
1621955,1903,1869,1879
1621965,1904,1866,1883
1621975,1903,1870,1883
1621985,1901,1869,1883
1621995,1899,1870,1879
1622005,1894,1867,1883
1622015,1891,1869,1877
1622025,1883,1866,1875
1622035,1885,1861,1872
1622045,1881,1865,1872
1622055,1878,1865,1869
1622065,1872,1861,1863
1622075,1872,1859,1861
1622085,1869,1858,1860
1622095,1868,1857,1859
1622105,1870,1855,1856
1622115,1859,1854,1856
1622125,1865,1854,1855
1622135,1857,1852,1855
1622145,1856,1853,1851
1622155,1857,1850,1853
1622165,1856,1856,1849
1622175,1858,1855,1846
1622185,1857,1851,1845
1622195,1858,1851,1845
1622205,1858,1851,1844
1622215,1860,1853,1847
1622225,1862,1847,1847
1622235,1867,1856,1855
1622245,1862,1856,1851
1622255,1865,1856,1854
1622265,1866,1855,1855
1622275,1867,1854,1855
1622285,1865,1856,1854
1622295,1862,1855,1855
1622305,1864,1853,1847
1622315,1861,1853,1853
1622325,1862,1855,1852
1622335,1858,1855,1853
1622345,1858,1856,1854
1622355,1859,1857,1847
1622365,1858,1853,1853
1622375,1859,1856,1849
1622385,1857,1856,1850
1622395,1857,1854,1853
1622405,1859,1853,1847
1622415,1861,1851,1852
1622425,1865,1855,1855
1622435,1857,1847,1851
1622445,1862,1853,1850
1622455,1858,1855,1851
1622465,1858,1853,1853
1622475,1858,1852,1846
1622485,1861,1855,1850
1622495,1860,1853,1855
1622505,1863,1846,1845
1622515,1863,1853,1853
1622525,1863,1850,1851
1622535,1863,1851,1856
1622545,1856,1857,1854
1622555,1857,1856,1851
1622565,1858,1858,1850
1622575,1859,1855,1851
1622585,1859,1857,1855
1622595,1861,1854,1847
1622605,1861,1854,1853
1622615,1863,1855,1854
1622625,1863,1854,1851
1622635,1866,1861,1856
1622645,1859,1858,1854
1622655,1858,1859,1855
1622665,1860,1856,1853
1622675,1858,1851,1849
1622685,1861,1856,1856
1622695,1858,1855,1851
1622705,1858,1850,1850
1622715,1863,1858,1849
1622725,1859,1849,1850
1622735,1866,1854,1847
1622745,1862,1857,1855
1622755,1861,1856,1850
1622765,1857,1856,1857
1622775,1855,1857,1847
1622785,1860,1855,1854
1622795,1859,1856,1849
1622805,1856,1855,1849
1622815,1861,1856,1847
1622825,1859,1855,1855
1622835,1863,1856,1851
1622845,1859,1853,1856
1622855,1859,1852,1855
1622865,1863,1853,1855
1622875,1866,1856,1854
1622885,1867,1858,1857
1622895,1871,1863,1856
1622905,1872,1855,1853
1622915,1878,1866,1866
1622925,1879,1861,1869
1622935,1890,1869,1877
1622945,1898,1872,1882
1622955,1894,1865,1876
1622965,1903,1877,1891
1622975,1904,1871,1887
1622985,1910,1873,1895
1622995,1899,1867,1891
1623005,1899,1863,1888
1623015,1897,1870,1886
1623025,1893,1868,1889
1623035,1893,1872,1893
1623045,1883,1863,1878
1623055,1883,1861,1872
1623065,1883,1868,1875
1623075,1872,1861,1874
1623085,1875,1862,1872
1623095,1869,1861,1865
1623105,1867,1857,1863
1623115,1869,1853,1871
1623125,1867,1854,1857
1623135,1865,1854,1855
1623145,1857,1854,1852
1623155,1860,1847,1850
1623165,1863,1859,1853
1623175,1857,1847,1847
1623185,1859,1855,1855
1623195,1855,1845,1851
1623205,1857,1849,1847
1623215,1866,1856,1851
1623225,1862,1854,1853
1623235,1866,1854,1855
1623245,1867,1847,1855
1623255,1871,1855,1856
1623265,1870,1855,1850
1623275,1866,1854,1856
1623285,1870,1859,1857
1623295,1867,1852,1855
1623305,1866,1860,1859
1623315,1870,1865,1856
1623325,1867,1856,1859
1623335,1867,1856,1854
1623345,1863,1853,1855
1623355,1866,1863,1859
1623365,1870,1863,1835
1623375,1869,1857,1851
1623385,1862,1858,1855
1623395,1861,1868,1855
1623405,1862,1857,1842
1623415,1859,1862,1867
1623425,1861,1855,1855
1623435,1866,1861,1847
1623445,1859,1857,1840
1623455,1861,1853,1855
1623465,1872,1856,1856
1623475,1865,1851,1854
1623485,1861,1850,1842
1623495,1867,1854,1853
1623505,1862,1850,1855
1623515,1863,1836,1858
1623525,1858,1855,1847
1623535,1866,1853,1851
1623545,1859,1847,1841
1623555,1859,1854,1851
1623565,1863,1857,1857
1623575,1866,1856,1851
1623585,1863,1853,1854
1623595,1859,1853,1847
1623605,1860,1837,1845
1623615,1865,1859,1853
1623625,1863,1855,1846
1623635,1863,1851,1859
1623645,1857,1841,1847
1623655,1857,1860,1847
1623665,1862,1864,1826
1623675,1860,1859,1847
1623685,1861,1844,1857
1623695,1859,1842,1857
1623705,1859,1851,1853
1623715,1859,1877,1843
1623725,1859,1851,1854
1623735,1858,1835,1854
1623745,1860,1840,1852
1623755,1863,1855,1857
1623765,1862,1856,1853
1623775,1867,1853,1854
1623785,1870,1861,1860
1623795,1873,1863,1855
1623805,1883,1870,1870
1623815,1884,1854,1856
1623825,1889,1855,1867
1623835,1898,1856,1876
1623845,1898,1861,1904
1623855,1901,1870,1889
1623865,1901,1870,1891
1623875,1898,1873,1888
1623885,1899,1902,1892
1623895,1892,1872,1883
1623905,1895,1872,1887
1623915,1888,1871,1887
1623925,1885,1869,1882
1623935,1886,1866,1878
1623945,1883,1857,1874
1623955,1874,1856,1878
1623965,1875,1862,1872
1623975,1871,1854,1870
1623985,1869,1859,1868
1623995,1865,1862,1855
1624005,1863,1865,1862
1624015,1868,1859,1856
1624025,1857,1854,1859
1624035,1858,1853,1856
1624045,1857,1852,1856
1624055,1865,1858,1850
1624065,1855,1856,1855
1624075,1857,1854,1853
1624085,1856,1855,1852
1624095,1860,1851,1852
1624105,1861,1854,1849
1624115,1861,1853,1857
1624125,1865,1852,1853
1624135,1856,1859,1852
1624145,1866,1854,1861
1624155,1870,1869,1863
1624165,1871,1850,1855
1624175,1867,1856,1856
1624185,1872,1853,1858
1624195,1861,1855,1857
1624205,1863,1869,1867
1624215,1857,1850,1853
1624225,1857,1857,1853
1624235,1862,1855,1855
1624245,1859,1852,1851
1624255,1869,1854,1857
1624265,1866,1843,1852
1624275,1860,1852,1851
1624285,1857,1854,1863
1624295,1855,1850,1853
1624305,1859,1855,1851
1624315,1856,1849,1850
1624325,1858,1854,1853
1624335,1863,1857,1851
1624345,1861,1851,1852
1624355,1857,1851,1853
1624365,1860,1845,1860
1624375,1856,1855,1851
1624385,1863,1860,1856
1624395,1862,1851,1855
1624405,1861,1857,1856
1624415,1860,1852,1855
1624425,1857,1851,1855
1624435,1855,1855,1854
1624445,1867,1855,1852
1624455,1861,1853,1851
1624465,1865,1846,1849
1624475,1866,1847,1844
1624485,1847,1853,1853
1624495,1872,1853,1856
1624505,1855,1855,1856
1624515,1884,1854,1851
1624525,1856,1854,1849
1624535,1879,1866,1861
1624545,1849,1851,1858
1624555,1856,1850,1856
1624565,1857,1847,1851
1624575,1867,1851,1854
1624585,1866,1854,1862
1624595,1851,1850,1855
1624605,1862,1854,1858
1624615,1860,1851,1847
1624625,1859,1856,1853
1624635,1863,1858,1857
1624645,1862,1853,1855
1624655,1866,1853,1852
1624665,1863,1845,1853
1624675,1865,1856,1850
1624685,1867,1859,1857
1624695,1864,1853,1850
1624705,1867,1855,1854
1624715,1853,1852,1853
1624725,1866,1857,1850
1624735,1868,1863,1862
1624745,1867,1856,1859
1624755,1878,1862,1866
1624765,1875,1861,1867
1624775,1888,1863,1872
1624785,1899,1867,1874
1624795,1899,1863,1879
1624805,1903,1871,1883
1624815,1903,1863,1877
1624825,1898,1872,1889
1624835,1903,1874,1893
1624845,1895,1872,1890
1624855,1904,1872,1890
1624865,1898,1867,1887
1624875,1894,1873,1889
1624885,1890,1869,1881
1624895,1887,1859,1873
1624905,1882,1865,1872
1624915,1871,1855,1872
1624925,1876,1861,1876
1624935,1869,1857,1870
1624945,1871,1856,1858
1624955,1869,1856,1859
1624965,1871,1856,1856
1624975,1871,1865,1862
1624985,1871,1858,1855
1624995,1859,1857,1862
1625005,1862,1855,1857
1625015,1861,1853,1853
1625025,1861,1859,1855
1625035,1860,1854,1856
1625045,1857,1851,1851
1625055,1862,1856,1853
1625065,1860,1855,1853
1625075,1867,1858,1859
1625085,1858,1861,1856
1625095,1858,1853,1856
1625105,1870,1858,1855
1625115,1870,1857,1855
1625125,1869,1858,1859
1625135,1872,1853,1856
1625145,1867,1853,1852
1625155,1861,1854,1861
1625165,1866,1851,1846
1625175,1863,1858,1857
1625185,1860,1850,1851
1625195,1861,1856,1854
1625205,1865,1854,1854
1625215,1858,1853,1851
1625225,1862,1859,1856
1625235,1861,1849,1853
1625245,1856,1845,1847
1625255,1857,1852,1850
1625265,1856,1849,1850
1625275,1862,1853,1850
1625285,1856,1857,1854
1625295,1856,1849,1853
1625305,1865,1857,1854
1625315,1859,1853,1850
1625325,1866,1859,1850
1625335,1865,1854,1846
1625345,1861,1853,1851
1625355,1863,1858,1853
1625365,1867,1846,1856
1625375,1869,1857,1857
1625385,1865,1846,1851
1625395,1860,1853,1851
1625405,1869,1843,1855
1625415,1863,1853,1849
1625425,1866,1858,1859
1625435,1864,1850,1849
1625445,1866,1852,1853
1625455,1862,1858,1859
1625465,1863,1852,1850
1625475,1863,1853,1855
1625485,1861,1847,1851
1625495,1866,1854,1856
1625505,1861,1857,1854
1625515,1862,1853,1855
1625525,1865,1857,1856
1625535,1860,1851,1855
1625545,1859,1854,1847
1625555,1861,1854,1849
1625565,1861,1853,1849
1625575,1859,1853,1855
1625585,1857,1849,1845
1625595,1856,1854,1848
1625605,1867,1859,1856
1625615,1859,1853,1854
1625625,1862,1858,1855
1625635,1861,1847,1849
1625645,1859,1854,1852
1625655,1863,1856,1855
1625665,1861,1852,1850
1625675,1866,1855,1851
1625685,1859,1851,1850
1625695,1867,1850,1850
1625705,1863,1854,1857
1625715,1863,1855,1851
1625725,1862,1853,1850
1625735,1865,1850,1849
1625745,1866,1851,1854
1625755,1869,1856,1854
1625765,1865,1854,1849
1625775,1871,1854,1855
1625785,1872,1855,1856
1625795,1876,1856,1865
1625805,1885,1865,1870
1625815,1888,1858,1872
1625825,1897,1865,1875
1625835,1902,1865,1883
1625845,1901,1869,1883
1625855,1905,1872,1895
1625865,1901,1868,1891
1625875,1904,1872,1889
1625885,1902,1870,1886
1625895,1901,1870,1879
1625905,1900,1870,1883
1625915,1888,1861,1879
1625925,1888,1866,1882
1625935,1872,1856,1872
1625945,1875,1862,1875
1625955,1873,1861,1871
1625965,1872,1866,1873
1625975,1871,1857,1865
1625985,1871,1846,1856
1625995,1872,1857,1868
1626005,1872,1863,1870
1626015,1863,1851,1855
1626025,1862,1856,1863
1626035,1861,1851,1853
1626045,1865,1857,1856
1626055,1862,1857,1855
1626065,1861,1853,1854
1626075,1871,1856,1855
1626085,1867,1855,1855
1626095,1872,1858,1857
1626105,1872,1856,1858
1626115,1869,1856,1855
1626125,1872,1857,1861
1626135,1872,1856,1857
1626145,1874,1859,1862
1626155,1871,1859,1861
1626165,1872,1855,1863
1626175,1872,1859,1860
1626185,1872,1856,1859
1626195,1872,1863,1859
1626205,1872,1859,1855
1626215,1869,1849,1856
1626225,1869,1855,1858
1626235,1866,1852,1856
1626245,1862,1862,1859
1626255,1863,1856,1851
1626265,1859,1857,1855
1626275,1858,1857,1855
1626285,1859,1852,1854
1626295,1862,1856,1855
1626305,1861,1856,1856
1626315,1859,1854,1849
1626325,1865,1859,1852
1626335,1866,1856,1851
1626345,1862,1856,1855
1626355,1867,1850,1855
1626365,1858,1854,1851
1626375,1866,1852,1856
1626385,1865,1856,1853
1626395,1867,1857,1854
1626405,1870,1855,1855
1626415,1867,1854,1850
1626425,1870,1861,1858
1626435,1867,1851,1857
1626445,1867,1861,1870
1626455,1869,1854,1857
1626465,1859,1847,1853
1626475,1861,1858,1857
1626485,1863,1854,1856
1626495,1867,1855,1859
1626505,1859,1847,1854
1626515,1863,1850,1845
1626525,1865,1862,1855
1626535,1859,1853,1854
1626545,1865,1861,1858
1626555,1862,1846,1855
1626565,1861,1851,1850
1626575,1862,1857,1856
1626585,1859,1851,1850
1626595,1866,1863,1855
1626605,1859,1851,1854
1626615,1859,1851,1850
1626625,1863,1850,1852
1626635,1863,1854,1851
1626645,1861,1857,1857
1626655,1860,1850,1853
1626665,1859,1854,1856
1626675,1867,1857,1861
1626685,1866,1847,1855
1626695,1872,1859,1858
1626705,1875,1853,1862
1626715,1883,1856,1865
1626725,1892,1866,1871
1626735,1897,1861,1872
1626745,1897,1871,1882
1626755,1895,1861,1881
1626765,1904,1868,1889
1626775,1904,1866,1894
1626785,1901,1868,1886
1626795,1904,1872,1886
1626805,1898,1866,1888
1626815,1893,1866,1887
1626825,1894,1872,1888
1626835,1890,1871,1874
1626845,1886,1870,1877
1626855,1874,1863,1872
1626865,1874,1857,1867
1626875,1878,1862,1871
1626885,1874,1857,1866
1626895,1872,1862,1871
1626905,1868,1853,1863
1626915,1871,1857,1865
1626925,1867,1855,1862
1626935,1863,1855,1857
1626945,1863,1857,1861
1626955,1863,1852,1849
1626965,1859,1857,1856
1626975,1858,1858,1856
1626985,1859,1849,1853
1626995,1859,1854,1855
1627005,1860,1856,1847
1627015,1860,1851,1855
1627025,1868,1855,1862
1627035,1861,1856,1858
1627045,1865,1856,1858
1627055,1859,1845,1854
1627065,1866,1853,1861
1627075,1865,1856,1859
1627085,1867,1854,1847
1627095,1870,1859,1856
1627105,1860,1856,1855
1627115,1865,1847,1853
1627125,1867,1856,1862
1627135,1863,1854,1850
1627145,1865,1857,1857
1627155,1856,1849,1853
1627165,1864,1858,1856
1627175,1863,1857,1854
1627185,1860,1853,1852
1627195,1865,1856,1853
1627205,1862,1845,1851
1627215,1866,1853,1847
1627225,1865,1856,1856
1627235,1861,1854,1852
1627245,1862,1856,1855
1627255,1858,1856,1846
1627265,1862,1856,1856
1627275,1869,1854,1854
1627285,1861,1852,1854
1627295,1865,1853,1851
1627305,1863,1852,1855
1627315,1869,1859,1849
1627325,1870,1856,1855
1627335,1869,1850,1846
1627345,1867,1857,1856
1627355,1868,1850,1855
1627365,1864,1858,1858
1627375,1867,1859,1861
1627385,1865,1853,1849
1627395,1868,1855,1855
1627405,1870,1855,1858
1627415,1870,1857,1855
1627425,1872,1858,1855
1627435,1866,1854,1851
1627445,1871,1856,1857
1627455,1872,1856,1856
1627465,1872,1859,1853
1627475,1872,1859,1858
1627485,1867,1856,1856
1627495,1867,1857,1857
1627505,1869,1855,1854
1627515,1867,1856,1851
1627525,1867,1853,1852
1627535,1866,1854,1851
1627545,1867,1853,1855
1627555,1859,1851,1854
1627565,1865,1856,1855
1627575,1860,1853,1857
1627585,1859,1851,1847
1627595,1859,1857,1854
1627605,1859,1855,1850
1627615,1861,1861,1855
1627625,1869,1854,1854
1627635,1868,1852,1854
1627645,1862,1855,1854
1627655,1865,1854,1850
1627665,1867,1858,1857
1627675,1867,1853,1851
1627685,1867,1851,1858
1627695,1872,1856,1859
1627705,1871,1857,1858
1627715,1876,1872,1862
1627725,1889,1870,1871
1627735,1891,1866,1867
1627745,1901,1867,1881
1627755,1904,1867,1882
1627765,1911,1877,1892
1627775,1905,1872,1888
1627785,1904,1868,1891
1627795,1911,1872,1893
1627805,1904,1865,1891
1627815,1905,1877,1903
1627825,1900,1870,1883
1627835,1897,1868,1882
1627845,1898,1868,1889
1627855,1889,1866,1881
1627865,1885,1859,1885
1627875,1884,1853,1874
1627885,1881,1860,1872
1627895,1878,1862,1872
1627905,1877,1856,1869
1627915,1873,1859,1862
1627925,1871,1853,1861
1627935,1870,1856,1861
1627945,1866,1857,1862
1627955,1860,1855,1858
1627965,1865,1855,1857
1627975,1856,1847,1855
1627985,1854,1854,1853
1627995,1857,1851,1853
1628005,1857,1853,1855
1628015,1856,1853,1849
1628025,1857,1847,1854
1628035,1862,1847,1846
1628045,1865,1859,1854
1628055,1862,1855,1854
1628065,1868,1861,1856
1628075,1867,1853,1853
1628085,1867,1852,1855
1628095,1868,1858,1857
1628105,1862,1850,1859
1628115,1867,1854,1856
1628125,1865,1851,1855
1628135,1861,1856,1853
1628145,1863,1856,1851
1628155,1859,1849,1850
1628165,1859,1854,1851
1628175,1858,1847,1846
1628185,1856,1857,1854
1628195,1859,1853,1853
1628205,1857,1855,1849
1628215,1857,1855,1854
1628225,1853,1847,1850
1628235,1850,1847,1851
1628245,1858,1857,1855
1628255,1855,1851,1851
1628265,1859,1854,1849
1628275,1859,1844,1850
1628285,1858,1851,1850
1628295,1859,1853,1850
1628305,1859,1853,1845
1628315,1857,1851,1851
1628325,1858,1844,1847
1628335,1859,1853,1851
1628345,1856,1862,1851
1628355,1857,1850,1852
1628365,1860,1856,1855
1628375,1856,1853,1853
1628385,1861,1858,1851
1628395,1859,1857,1857
1628405,1859,1847,1845
1628415,1861,1854,1853
1628425,1856,1840,1840
1628435,1862,1855,1849
1628445,1857,1854,1853
1628455,1855,1856,1843
1628465,1857,1854,1849
1628475,1857,1850,1847
1628485,1863,1857,1853
1628495,1856,1854,1850
1628505,1858,1851,1847
1628515,1858,1853,1847
1628525,1856,1850,1851
1628535,1859,1855,1851
1628545,1855,1853,1850
1628555,1856,1851,1851
1628565,1856,1856,1854
1628575,1861,1853,1852
1628585,1861,1862,1856
1628595,1863,1847,1857
1628605,1855,1850,1849
1628615,1857,1851,1855
1628625,1862,1850,1856
1628635,1865,1856,1859
1628645,1861,1859,1857
1628655,1860,1860,1856
1628665,1863,1856,1855
1628675,1859,1856,1857
1628685,1866,1862,1870
1628695,1863,1859,1859
1628705,1866,1857,1863
1628715,1868,1863,1861
1628725,1869,1855,1856
1628735,1871,1853,1862
1628745,1872,1857,1865
1628755,1876,1850,1865
1628765,1890,1855,1872
1628775,1890,1861,1872
1628785,1903,1860,1887
1628795,1904,1861,1877
1628805,1905,1867,1882
1628815,1914,1870,1888
1628825,1919,1869,1891
1628835,1920,1872,1892
1628845,1921,1871,1894
1628855,1916,1869,1897
1628865,1917,1870,1892
1628875,1911,1870,1901
1628885,1908,1876,1899
1628895,1904,1872,1904
1628905,1901,1873,1894
1628915,1900,1875,1895
1628925,1891,1872,1886
1628935,1893,1873,1889
1628945,1887,1867,1889
1628955,1883,1863,1882
1628965,1882,1863,1879
1628975,1875,1859,1872
1628985,1874,1859,1873
1628995,1872,1857,1871
1629005,1865,1852,1862
1629015,1867,1859,1861
1629025,1867,1856,1863
1629035,1869,1863,1869
1629045,1866,1855,1856
1629055,1872,1853,1861
1629065,1870,1856,1866
1629075,1869,1850,1862
1629085,1868,1855,1863
1629095,1866,1855,1861
1629105,1865,1855,1859
1629115,1866,1856,1866
1629125,1861,1856,1863
1629135,1858,1855,1859
1629145,1859,1857,1855
1629155,1857,1853,1857
1629165,1861,1856,1857
1629175,1857,1856,1857
1629185,1856,1856,1856
1629195,1857,1850,1850
1629205,1853,1853,1853
1629215,1850,1855,1852
1629225,1849,1855,1854
1629235,1850,1856,1848
1629245,1846,1849,1846
1629255,1850,1850,1842
1629265,1851,1855,1850
1629275,1853,1853,1849
1629285,1858,1854,1846
1629295,1855,1847,1845
1629305,1856,1847,1853
1629315,1858,1849,1856
1629325,1857,1850,1851
1629335,1859,1853,1853
1629345,1859,1845,1849
1629355,1862,1850,1855
1629365,1867,1855,1853
1629375,1863,1851,1852
1629385,1865,1854,1851
1629395,1864,1851,1854
1629405,1863,1855,1855
1629415,1866,1857,1854
1629425,1865,1857,1856
1629435,1866,1856,1862
1629445,1866,1849,1853
1629455,1859,1853,1851
1629465,1859,1857,1855
1629475,1865,1856,1851
1629485,1864,1860,1855
1629495,1860,1853,1850
1629505,1866,1850,1856
1629515,1861,1861,1856
1629525,1861,1854,1851
1629535,1863,1853,1856
1629545,1859,1853,1857
1629555,1867,1853,1855
1629565,1867,1859,1858
1629575,1867,1852,1856
1629585,1870,1860,1857
1629595,1866,1855,1855
1629605,1870,1854,1856
1629615,1867,1862,1866
1629625,1867,1857,1862
1629635,1871,1859,1863
1629645,1869,1849,1857
1629655,1872,1862,1863
1629665,1870,1862,1863
1629675,1869,1856,1858
1629685,1871,1861,1859
1629695,1861,1854,1857
1629705,1869,1862,1862
1629715,1865,1852,1855
1629725,1865,1846,1853
1629735,1865,1857,1859
1629745,1867,1855,1857
1629755,1872,1856,1870
1629765,1872,1858,1871
1629775,1876,1860,1867
1629785,1879,1860,1870
1629795,1881,1863,1872
1629805,1882,1870,1875
1629815,1878,1867,1873
1629825,1882,1863,1872
1629835,1874,1861,1871
1629845,1872,1861,1872
1629855,1873,1860,1872
1629865,1872,1866,1866
1629875,1872,1863,1870
1629885,1874,1857,1872
1629895,1872,1861,1865
1629905,1872,1863,1868
1629915,1874,1859,1863
1629925,1867,1846,1862
1629935,1872,1867,1866
1629945,1870,1855,1861
1629955,1871,1857,1867
1629965,1869,1856,1860
1629975,1870,1853,1855
1629985,1867,1856,1854
1629995,1861,1858,1857
1630005,1858,1862,1858
1630015,1858,1870,1851
1630025,1857,1840,1851
1630035,1859,1856,1849
1630045,1857,1855,1856
1630055,1863,1862,1854
1630065,1859,1857,1857
1630075,1864,1845,1856
1630085,1866,1857,1847
1630095,1859,1858,1861
1630105,1867,1872,1857
1630115,1863,1840,1859
1630125,1862,1855,1854
1630135,1867,1869,1860
1630145,1858,1844,1851
1630155,1863,1857,1862
1630165,1860,1859,1853
1630175,1856,1847,1853
1630185,1855,1856,1856
1630195,1855,1845,1867
1630205,1856,1869,1844
1630215,1850,1845,1844
1630225,1847,1857,1849
1630235,1856,1855,1845
1630245,1853,1852,1841
1630255,1853,1863,1850
1630265,1855,1845,1852
1630275,1855,1845,1845
1630285,1861,1855,1857
1630295,1856,1861,1856
1630305,1858,1869,1841
1630315,1858,1841,1841
1630325,1858,1856,1841
1630335,1859,1862,1828
1630345,1861,1845,1846
1630355,1862,1872,1854
1630365,1857,1852,1843
1630375,1860,1835,1847
1630385,1861,1843,1857
1630395,1863,1843,1842
1630405,1866,1854,1857
1630415,1859,1840,1857
1630425,1858,1862,1857
1630435,1859,1855,1857
1630445,1856,1856,1855
1630455,1857,1858,1859
1630465,1858,1851,1855
1630475,1859,1851,1855
1630485,1860,1853,1856
1630495,1861,1853,1851
1630505,1859,1853,1884
1630515,1858,1845,1853
1630525,1857,1847,1856
1630535,1858,1859,1846
1630545,1854,1844,1851
1630555,1856,1856,1855
1630565,1853,1858,1848
1630575,1858,1851,1846
1630585,1862,1862,1857
1630595,1862,1824,1846
1630605,1862,1861,1851
1630615,1861,1854,1850
1630625,1861,1856,1854
1630635,1859,1854,1856
1630645,1861,1846,1850
1630655,1861,1855,1851
1630665,1855,1849,1847
1630675,1857,1859,1847
1630685,1862,1856,1851
1630695,1857,1851,1851
1630705,1858,1856,1852
1630715,1855,1849,1855
1630725,1859,1851,1853
1630735,1861,1856,1854
1630745,1861,1851,1856
1630755,1863,1853,1858
1630765,1854,1846,1855
1630775,1867,1856,1843
1630785,1868,1853,1853
1630795,1866,1855,1853
1630805,1869,1859,1855
1630815,1857,1846,1853
1630825,1867,1849,1860
1630835,1870,1856,1857
1630845,1866,1850,1856
1630855,1863,1855,1862
1630865,1860,1840,1847
1630875,1855,1857,1855
1630885,1863,1856,1859
1630895,1857,1859,1857
1630905,1862,1856,1856
1630915,1864,1850,1847
1630925,1866,1860,1863
1630935,1873,1856,1867
1630945,1882,1853,1871
1630955,1872,1862,1877
1630965,1891,1862,1882
1630975,1909,1864,1890
1630985,1900,1871,1892
1630995,1893,1870,1895
1631005,1915,1872,1891
1631015,1904,1870,1895
1631025,1905,1875,1903
1631035,1903,1872,1898
1631045,1892,1870,1890
1631055,1897,1869,1895
1631065,1899,1872,1891
1631075,1900,1869,1888
1631085,1885,1869,1885
1631095,1884,1870,1881
1631105,1886,1863,1877
1631115,1879,1866,1872
1631125,1890,1867,1872
1631135,1875,1864,1872
1631145,1867,1855,1870
1631155,1872,1865,1870
1631165,1872,1858,1870
1631175,1856,1862,1872
1631185,1866,1856,1866
1631195,1856,1855,1858
1631205,1872,1857,1858
1631215,1870,1856,1855
1631225,1871,1860,1856
1631235,1872,1856,1859
1631245,1872,1851,1854
1631255,1853,1858,1856
1631265,1861,1850,1862
1631275,1856,1855,1859
1631285,1850,1859,1856
1631295,1869,1856,1856
1631305,1863,1856,1859
1631315,1861,1855,1856
1631325,1869,1858,1863
1631335,1861,1855,1855
1631345,1860,1853,1851
1631355,1862,1854,1860
1631365,1861,1850,1855
1631375,1863,1854,1851
1631385,1860,1854,1854
1631395,1856,1854,1843
1631405,1868,1856,1850
1631415,1883,1852,1850
1631425,1863,1867,1853
1631435,1859,1858,1851
1631445,1855,1851,1849
1631455,1855,1851,1855
1631465,1854,1852,1851
1631475,1856,1857,1864
1631485,1857,1844,1857
1631495,1855,1846,1851
1631505,1855,1859,1851
1631515,1859,1851,1849
1631525,1858,1859,1852
1631535,1856,1857,1856
1631545,1863,1855,1856
1631555,1862,1857,1853
1631565,1860,1853,1856
1631575,1861,1854,1858
1631585,1859,1856,1856
1631595,1863,1850,1858
1631605,1861,1853,1856
1631615,1866,1856,1855
1631625,1862,1862,1859
1631635,1860,1858,1857
1631645,1865,1863,1855
1631655,1867,1865,1858
1631665,1868,1860,1863
1631675,1870,1866,1861
1631685,1871,1867,1859
1631695,1873,1859,1860
1631705,1871,1857,1865
1631715,1870,1858,1862
1631725,1870,1855,1860
1631735,1869,1855,1854
1631745,1871,1866,1854
1631755,1869,1859,1849
1631765,1861,1856,1848
1631775,1863,1857,1851
1631785,1861,1848,1845
1631795,1859,1847,1844
1631805,1867,1851,1849
1631815,1867,1845,1845
1631825,1859,1850,1854
1631835,1860,1842,1851
1631845,1851,1854,1845
1631855,1864,1855,1851
1631865,1858,1850,1851
1631875,1864,1854,1853
1631885,1859,1847,1847
1631895,1867,1855,1855
1631905,1867,1855,1856
1631915,1863,1849,1858
1631925,1866,1861,1859
1631935,1862,1854,1855
1631945,1867,1850,1859
1631955,1862,1862,1862
1631965,1863,1858,1857
1631975,1866,1858,1865
1631985,1862,1856,1859
1631995,1865,1857,1855
1632005,1861,1858,1859
1632015,1859,1845,1859
1632025,1865,1856,1853
1632035,1860,1853,1841
1632045,1858,1858,1847
1632055,1861,1852,1856
1632065,1857,1845,1850
1632075,1856,1855,1851
1632085,1853,1847,1840
1632095,1858,1853,1853
1632105,1856,1851,1851
1632115,1857,1846,1843
1632125,1863,1857,1858
1632135,1872,1851,1863
1632145,1876,1860,1865
1632155,1886,1865,1870
1632165,1887,1859,1872
1632175,1893,1866,1876
1632185,1886,1869,1875
1632195,1890,1872,1884
1632205,1893,1870,1874
1632215,1893,1867,1872
1632225,1887,1871,1882
1632235,1882,1863,1872
1632245,1887,1872,1876
1632255,1878,1872,1873
1632265,1878,1858,1867
1632275,1872,1861,1872
1632285,1871,1860,1867
1632295,1871,1866,1866
1632305,1872,1863,1868
1632315,1865,1851,1859
1632325,1869,1857,1861
1632335,1869,1855,1854
1632345,1868,1862,1866
1632355,1862,1855,1856
1632365,1865,1853,1852
1632375,1863,1854,1851
1632385,1858,1852,1850
1632395,1862,1854,1853
1632405,1861,1853,1855
1632415,1861,1853,1851
1632425,1868,1851,1853
1632435,1869,1854,1854
1632445,1868,1856,1850
1632455,1871,1855,1851
1632465,1872,1855,1856
1632475,1875,1857,1855
1632485,1877,1859,1856
1632495,1876,1857,1861
1632505,1872,1857,1861
1632515,1870,1853,1858
1632525,1872,1861,1866
1632535,1872,1856,1858
1632545,1875,1859,1853
1632555,1873,1854,1856
1632565,1872,1855,1855
1632575,1870,1858,1857
1632585,1866,1852,1852
1632595,1869,1857,1851
1632605,1859,1847,1851
1632615,1854,1850,1850
1632625,1863,1850,1854
1632635,1855,1853,1849
1632645,1858,1855,1854
1632655,1857,1846,1847
1632665,1857,1842,1845
1632675,1860,1854,1850
1632685,1855,1850,1846
1632695,1856,1856,1849
1632705,1849,1843,1846
1632715,1858,1850,1846
1632725,1858,1856,1853
1632735,1853,1846,1847
1632745,1858,1854,1847
1632755,1859,1850,1842
1632765,1860,1855,1851
1632775,1863,1857,1851
1632785,1860,1847,1849
1632795,1860,1851,1851
1632805,1855,1846,1845
1632815,1861,1854,1851
1632825,1861,1854,1846
1632835,1855,1855,1851
1632845,1862,1857,1854
1632855,1862,1847,1843
1632865,1860,1855,1850
1632875,1859,1854,1853
1632885,1863,1855,1852
1632895,1859,1854,1850
1632905,1858,1846,1842
1632915,1861,1846,1847
1632925,1859,1851,1849
1632935,1859,1851,1851
1632945,1857,1853,1842
1632955,1853,1853,1846
1632965,1856,1853,1845
1632975,1855,1856,1853
1632985,1857,1850,1849
1632995,1857,1852,1855
1633005,1858,1853,1849
1633015,1858,1849,1841
1633025,1859,1856,1848
1633035,1856,1846,1847
1633045,1862,1851,1850
1633055,1855,1847,1847
1633065,1858,1854,1852
1633075,1866,1857,1850
1633085,1858,1856,1845
1633095,1862,1856,1850
1633105,1862,1856,1844
1633115,1860,1859,1849
1633125,1863,1860,1855
1633135,1865,1856,1847
1633145,1865,1856,1854
1633155,1853,1847,1843
1633165,1857,1859,1850
1633175,1859,1858,1851
1633185,1854,1854,1844
1633195,1858,1853,1851
1633205,1851,1845,1846
1633215,1862,1855,1857
1633225,1866,1856,1861
1633235,1874,1855,1869
1633245,1877,1856,1871
1633255,1883,1853,1866
1633265,1890,1865,1876
1633275,1891,1870,1879
1633285,1893,1857,1883
1633295,1892,1870,1883
1633305,1888,1869,1877
1633315,1887,1869,1886
1633325,1882,1867,1878
1633335,1879,1859,1872
1633345,1879,1863,1875
1633355,1875,1862,1869
1633365,1881,1871,1872
1633375,1875,1861,1867
1633385,1867,1861,1863
1633395,1871,1862,1866
1633405,1865,1858,1862
1633415,1866,1862,1862
1633425,1862,1857,1853
1633435,1857,1853,1853
1633445,1857,1856,1850
1633455,1858,1847,1846
1633465,1858,1861,1851
1633475,1852,1856,1854
1633485,1851,1844,1847
1633495,1855,1852,1850
1633505,1854,1850,1850
1633515,1859,1859,1850
1633525,1855,1856,1851
1633535,1858,1847,1845
1633545,1857,1847,1852
1633555,1859,1854,1849
1633565,1866,1854,1856
1633575,1861,1851,1856
1633585,1857,1851,1854
1633595,1861,1856,1863
1633605,1861,1855,1850
1633615,1862,1855,1854
1633625,1863,1857,1854
1633635,1856,1850,1854
1633645,1868,1851,1855
1633655,1863,1851,1853
1633665,1867,1855,1858
1633675,1866,1858,1857
1633685,1861,1857,1854
1633695,1868,1859,1854
1633705,1866,1854,1857
1633715,1867,1861,1861
1633725,1862,1858,1855
1633735,1861,1852,1851
1633745,1872,1857,1855
1633755,1868,1855,1849
1633765,1872,1861,1856
1633775,1866,1856,1853
1633785,1868,1853,1851
1633795,1866,1858,1858
1633805,1867,1858,1854
1633815,1866,1872,1858
1633825,1866,1856,1854
1633835,1866,1851,1847
1633845,1867,1854,1856
1633855,1863,1853,1856
1633865,1867,1855,1863
1633875,1862,1845,1854
1633885,1863,1853,1856
1633895,1858,1856,1862
1633905,1862,1853,1856
1633915,1859,1853,1865
1633925,1863,1850,1852
1633935,1861,1851,1856
1633945,1862,1854,1851
1633955,1863,1855,1854
1633965,1869,1855,1856
1633975,1866,1855,1852
1633985,1858,1852,1856
1633995,1865,1857,1851
1634005,1866,1855,1851
1634015,1862,1857,1856
1634025,1859,1845,1849
1634035,1859,1850,1857
1634045,1861,1855,1858
1634055,1857,1857,1856
1634065,1859,1859,1856
1634075,1857,1848,1843
1634085,1858,1851,1850
1634095,1859,1854,1855
1634105,1856,1854,1853
1634115,1861,1852,1857
1634125,1859,1847,1848
1634135,1859,1846,1851
1634145,1863,1862,1861
1634155,1869,1855,1859
1634165,1872,1860,1866
1634175,1877,1859,1867
1634185,1879,1859,1873
1634195,1891,1861,1885
1634205,1890,1862,1883
1634215,1894,1870,1887
1634225,1891,1858,1892
1634235,1897,1865,1891
1634245,1890,1862,1888
1634255,1887,1860,1886
1634265,1888,1867,1887
1634275,1879,1859,1873
1634285,1878,1862,1879
1634295,1878,1862,1877
1634305,1872,1859,1870
1634315,1872,1858,1872
1634325,1866,1853,1866
1634335,1864,1855,1870
1634345,1869,1852,1863
1634355,1859,1861,1858
1634365,1856,1856,1855
1634375,1854,1848,1855
1634385,1855,1857,1854
1634395,1857,1855,1847
1634405,1853,1854,1845
1634415,1855,1856,1846
1634425,1855,1844,1847
1634435,1856,1852,1850
1634445,1859,1855,1856
1634455,1857,1854,1855
1634465,1856,1854,1851
1634475,1861,1855,1843
1634485,1862,1855,1858
1634495,1861,1859,1856
1634505,1868,1851,1855
1634515,1865,1857,1859
1634525,1867,1855,1849
1634535,1865,1854,1853
1634545,1855,1850,1857
1634555,1857,1850,1850
1634565,1854,1853,1851
1634575,1851,1854,1846
1634585,1854,1859,1849
1634595,1846,1853,1849
1634605,1843,1847,1841
1634615,1847,1853,1843
1634625,1842,1851,1843
1634635,1845,1856,1844
1634645,1843,1855,1840
1634655,1840,1844,1841
1634665,1841,1848,1840
1634675,1841,1847,1840
1634685,1851,1856,1846
1634695,1841,1855,1842
1634705,1843,1853,1846
1634715,1849,1855,1846
1634725,1844,1855,1846
1634735,1847,1858,1850
1634745,1851,1851,1849
1634755,1854,1845,1851
1634765,1857,1855,1851
1634775,1854,1846,1851
1634785,1857,1856,1853
1634795,1858,1858,1855
1634805,1858,1851,1847
1634815,1861,1856,1856
1634825,1861,1855,1852
1634835,1867,1849,1850
1634845,1859,1853,1851
1634855,1858,1855,1856
1634865,1867,1853,1855
1634875,1863,1854,1855
1634885,1865,1856,1853
1634895,1861,1855,1857
1634905,1863,1853,1855
1634915,1859,1861,1853
1634925,1858,1859,1853
1634935,1869,1861,1858
1634945,1856,1862,1853
1634955,1862,1847,1850
1634965,1858,1857,1850
1634975,1863,1847,1849
1634985,1868,1853,1855
1634995,1857,1843,1846
1635005,1856,1843,1843
1635015,1857,1853,1856
1635025,1854,1850,1846
1635035,1855,1861,1856
1635045,1855,1851,1847
1635055,1857,1842,1852
1635065,1859,1863,1850
1635075,1862,1849,1850
1635085,1871,1854,1867
1635095,1870,1849,1862
1635105,1874,1855,1859
1635115,1885,1862,1872
1635125,1887,1865,1875
1635135,1890,1872,1883
1635145,1892,1872,1885
1635155,1899,1873,1885
1635165,1895,1883,1897
1635175,1895,1872,1886
1635185,1895,1873,1890
1635195,1888,1869,1887
1635205,1889,1873,1886
1635215,1889,1870,1878
1635225,1885,1866,1872
1635235,1882,1871,1874
1635245,1871,1859,1865
1635255,1870,1859,1863
1635265,1869,1856,1863
1635275,1866,1853,1859
1635285,1865,1854,1855
1635295,1858,1842,1852
1635305,1859,1850,1855
1635315,1862,1849,1851
1635325,1850,1845,1846
1635335,1850,1844,1846
1635345,1847,1845,1845
1635355,1847,1849,1845
1635365,1847,1859,1851
1635375,1853,1850,1844
1635385,1856,1852,1846
1635395,1857,1843,1842
1635405,1858,1847,1844
1635415,1860,1859,1856
1635425,1859,1855,1853
1635435,1862,1857,1856
1635445,1862,1851,1847
1635455,1857,1853,1852
1635465,1855,1857,1847
1635475,1852,1851,1856
1635485,1857,1856,1856
1635495,1852,1849,1853
1635505,1854,1850,1854
1635515,1859,1857,1855
1635525,1854,1846,1855
1635535,1855,1851,1850
1635545,1847,1847,1853
1635555,1854,1856,1856
1635565,1860,1855,1855
1635575,1856,1851,1847
1635585,1856,1857,1850
1635595,1851,1840,1842
1635605,1859,1858,1851
1635615,1863,1850,1850
1635625,1861,1854,1847
1635635,1863,1858,1853
1635645,1865,1843,1845
1635655,1863,1856,1850
1635665,1859,1860,1856
1635675,1856,1853,1845
1635685,1864,1853,1843
1635695,1860,1850,1846
1635705,1867,1857,1851
1635715,1859,1854,1847
1635725,1859,1856,1849
1635735,1862,1859,1851
1635745,1862,1855,1846
1635755,1862,1856,1856
1635765,1868,1854,1855
1635775,1863,1849,1849
1635785,1863,1847,1853
1635795,1861,1850,1849
1635805,1869,1858,1850
1635815,1863,1853,1845
1635825,1859,1857,1845
1635835,1865,1854,1847
1635845,1865,1854,1850
1635855,1866,1858,1849
1635865,1863,1857,1854
1635875,1867,1854,1849
1635885,1867,1855,1853
1635895,1870,1847,1854
1635905,1872,1857,1856
1635915,1873,1858,1863
1635925,1873,1856,1861
1635935,1884,1866,1869
1635945,1888,1866,1872
1635955,1891,1866,1886
1635965,1890,1864,1881
1635975,1893,1863,1881
1635985,1894,1863,1888
1635995,1887,1866,1886
1636005,1889,1863,1888
1636015,1887,1861,1885
1636025,1886,1854,1873
1636035,1878,1863,1877
1636045,1878,1857,1872
1636055,1878,1863,1874
1636065,1872,1858,1871
1636075,1865,1856,1861
1636085,1867,1859,1869
1636095,1862,1859,1867
1636105,1870,1861,1872
1636115,1859,1863,1861
1636125,1865,1853,1851
1636135,1859,1862,1861
1636145,1860,1856,1857
1636155,1862,1863,1853
1636165,1857,1858,1854
1636175,1857,1853,1850
1636185,1860,1855,1850
1636195,1861,1850,1849
1636205,1866,1858,1856
1636215,1859,1858,1853
1636225,1859,1857,1855
1636235,1863,1851,1866
1636245,1863,1856,1860
1636255,1866,1863,1865
1636265,1869,1856,1858
1636275,1863,1850,1853
1636285,1867,1853,1861
1636295,1862,1853,1861
1636305,1863,1856,1860
1636315,1867,1857,1856
1636325,1870,1855,1861
1636335,1863,1862,1863
1636345,1862,1854,1857
1636355,1869,1856,1850
1636365,1866,1849,1858
1636375,1859,1856,1853
1636385,1866,1856,1861
1636395,1861,1850,1853
1636405,1864,1856,1857
1636415,1855,1845,1851
1636425,1860,1852,1854
1636435,1859,1856,1855
1636445,1857,1853,1845
1636455,1859,1856,1852
1636465,1856,1852,1847
1636475,1856,1854,1847
1636485,1858,1851,1846
1636495,1856,1845,1843
1636505,1865,1853,1847
1636515,1859,1840,1846
1636525,1862,1847,1847
1636535,1856,1856,1854
1636545,1855,1850,1845
1636555,1858,1855,1854
1636565,1858,1855,1849
1636575,1856,1856,1852
1636585,1865,1855,1852
1636595,1859,1846,1854
1636605,1863,1855,1849
1636615,1862,1851,1851
1636625,1867,1853,1850
1636635,1872,1853,1855
1636645,1867,1850,1853
1636655,1869,1856,1859
1636665,1871,1851,1857
1636675,1872,1863,1851
1636685,1879,1872,1862
1636695,1875,1860,1867
1636705,1889,1866,1894
1636715,1892,1857,1875
1636725,1903,1863,1888
1636735,1901,1872,1893
1636745,1899,1868,1892
1636755,1901,1863,1899
1636765,1887,1869,1882
1636775,1892,1871,1904
1636785,1891,1881,1898
1636795,1879,1872,1891
1636805,1879,1872,1888
1636815,1872,1847,1882
1636825,1879,1842,1886
1636835,1877,1871,1888
1636845,1872,1854,1878
1636855,1873,1872,1882
1636865,1872,1863,1871
1636875,1872,1865,1886
1636885,1869,1871,1895
1636895,1872,1862,1878
1636905,1872,1864,1874
1636915,1871,1871,1867
1636925,1872,1860,1876
1636935,1872,1858,1872
1636945,1868,1851,1868
1636955,1872,1850,1858
1636965,1869,1853,1862
1636975,1871,1853,1869
1636985,1871,1846,1865
1636995,1866,1856,1865
1637005,1872,1859,1845
1637015,1872,1855,1854
1637025,1879,1863,1863
1637035,1881,1855,1865
1637045,1881,1855,1865
1637055,1884,1872,1856
1637065,1877,1854,1853
1637075,1885,1850,1870
1637085,1882,1869,1876
1637095,1877,1847,1863
1637105,1885,1853,1862
1637115,1883,1841,1863
1637125,1888,1883,1866
1637135,1885,1859,1851
1637145,1879,1859,1855
1637155,1885,1861,1855
1637165,1879,1853,1857
1637175,1877,1855,1862
1637185,1872,1855,1858
1637195,1872,1850,1870
1637205,1871,1851,1853
1637215,1870,1849,1853
1637225,1870,1854,1853
1637235,1867,1850,1846
1637245,1863,1856,1850
1637255,1859,1852,1850
1637265,1861,1853,1851
1637275,1861,1856,1855
1637285,1857,1862,1850
1637295,1853,1849,1856
1637305,1855,1854,1854
1637315,1854,1847,1855
1637325,1861,1855,1856
1637335,1859,1854,1852
1637345,1857,1855,1850
1637355,1862,1858,1851
1637365,1858,1857,1851
1637375,1869,1856,1855
1637385,1857,1854,1856
1637395,1860,1852,1850
1637405,1856,1853,1856
1637415,1857,1844,1849
1637425,1865,1856,1858
1637435,1867,1856,1854
1637445,1865,1858,1863
1637455,1873,1869,1867
1637465,1880,1856,1867
1637475,1887,1862,1878
1637485,1887,1854,1878
1637495,1890,1861,1879
1637505,1895,1865,1904
1637515,1895,1866,1895
1637525,1900,1868,1893
1637535,1894,1871,1893
1637545,1898,1869,1893
1637555,1894,1874,1899
1637565,1890,1870,1889
1637575,1890,1872,1885
1637585,1893,1858,1879
1637595,1879,1855,1877
1637605,1879,1864,1873
1637615,1875,1854,1872
1637625,1895,1858,1874
1637635,1850,1854,1867
1637645,1870,1855,1869
1637655,1870,1856,1871
1637665,1861,1853,1866
1637675,1861,1860,1856
1637685,1856,1847,1856
1637695,1868,1845,1861
1637705,1861,1854,1857
1637715,1856,1850,1850
1637725,1855,1846,1854
1637735,1858,1841,1847
1637745,1855,1842,1842
1637755,1856,1856,1853
1637765,1856,1850,1844
1637775,1856,1857,1847
1637785,1855,1853,1845
1637795,1861,1861,1852
1637805,1868,1849,1854
1637815,1847,1851,1847
1637825,1883,1853,1853
1637835,1853,1852,1846
1637845,1865,1853,1845
1637855,1863,1847,1858
1637865,1859,1854,1854
1637875,1871,1859,1857
1637885,1871,1851,1855
1637895,1854,1855,1854
1637905,1868,1861,1854
1637915,1856,1850,1853
1637925,1867,1855,1857
1637935,1872,1853,1856
1637945,1872,1853,1857
1637955,1857,1856,1853
1637965,1858,1858,1853
1637975,1854,1856,1855
1637985,1869,1855,1846
1637995,1855,1856,1849
1638005,1866,1856,1849
1638015,1865,1846,1846
1638025,1867,1855,1855
1638035,1867,1841,1849
1638045,1863,1855,1856
1638055,1865,1857,1859
1638065,1867,1846,1857
1638075,1871,1854,1857
1638085,1866,1859,1854
1638095,1868,1866,1855
1638105,1868,1868,1860
1638115,1869,1855,1854
1638125,1871,1860,1858
1638135,1870,1861,1858
1638145,1882,1856,1858
1638155,1849,1856,1858
1638165,1878,1853,1857
1638175,1872,1860,1867
1638185,1872,1856,1861
1638195,1872,1870,1870
1638205,1878,1867,1864
1638215,1877,1860,1869
1638225,1875,1866,1870
1638235,1873,1858,1863
1638245,1879,1866,1872
1638255,1877,1861,1872
1638265,1874,1859,1869
1638275,1879,1862,1872
1638285,1874,1856,1870
1638295,1879,1870,1872
1638305,1875,1866,1872
1638315,1873,1863,1872
1638325,1881,1867,1879
1638335,1884,1867,1874
1638345,1887,1866,1878
1638355,1893,1862,1877
1638365,1888,1865,1881
1638375,1894,1872,1881
1638385,1893,1867,1885
1638395,1899,1869,1887
1638405,1890,1866,1881
1638415,1887,1866,1876
1638425,1887,1869,1879
1638435,1882,1862,1872
1638445,1884,1865,1872
1638455,1873,1856,1864
1638465,1870,1856,1865
1638475,1872,1858,1867
1638485,1870,1855,1864
1638495,1873,1856,1867
1638505,1867,1858,1861
1638515,1857,1858,1858
1638525,1859,1859,1863
1638535,1858,1854,1855
1638545,1858,1857,1855
1638555,1859,1856,1847
1638565,1853,1850,1843
1638575,1859,1853,1853
1638585,1856,1857,1846
1638595,1858,1860,1852
1638605,1854,1855,1851
1638615,1857,1858,1851
1638625,1857,1857,1856
1638635,1862,1856,1858
1638645,1861,1863,1857
1638655,1860,1857,1857
1638665,1862,1850,1851
1638675,1866,1870,1851
1638685,1861,1856,1843
1638695,1863,1858,1851
1638705,1858,1851,1850
1638715,1857,1854,1850
1638725,1862,1856,1853
1638735,1859,1854,1849
1638745,1857,1854,1851
1638755,1859,1849,1851
1638765,1856,1853,1847
1638775,1863,1854,1847
1638785,1857,1855,1846
1638795,1865,1856,1850
1638805,1855,1856,1844
1638815,1859,1855,1847
1638825,1859,1861,1853
1638835,1858,1855,1850
1638845,1861,1854,1852
1638855,1856,1851,1847
1638865,1857,1858,1850
1638875,1858,1852,1847
1638885,1856,1855,1845
1638895,1856,1855,1850
1638905,1850,1845,1843
1638915,1855,1855,1843
1638925,1852,1856,1846
1638935,1849,1846,1843
1638945,1851,1853,1844
1638955,1849,1842,1838
1638965,1851,1855,1841
1638975,1857,1857,1840
1638985,1854,1856,1840
1638995,1854,1851,1843
1639005,1858,1847,1843
1639015,1854,1850,1840
1639025,1859,1851,1845
1639035,1859,1850,1840
1639045,1860,1854,1851
1639055,1863,1851,1845
1639065,1860,1846,1843
1639075,1866,1854,1849
1639085,1859,1855,1851
1639095,1871,1857,1850
1639105,1865,1854,1853
1639115,1872,1855,1851
1639125,1865,1866,1847
1639135,1866,1848,1850
1639145,1869,1853,1851
1639155,1862,1845,1853
1639165,1866,1854,1850
1639175,1863,1862,1854
1639185,1863,1853,1849
1639195,1863,1856,1856
1639205,1863,1850,1854
1639215,1870,1860,1853
1639225,1872,1861,1857
1639235,1872,1854,1856
1639245,1877,1863,1865
1639255,1882,1860,1866
1639265,1892,1862,1875
1639275,1895,1865,1879
1639285,1893,1872,1887
1639295,1899,1870,1885
1639305,1901,1870,1893
1639315,1904,1873,1887
1639325,1902,1872,1893
1639335,1892,1869,1882
1639345,1894,1872,1885
1639355,1890,1862,1879
1639365,1891,1869,1875
1639375,1887,1862,1871
1639385,1876,1867,1867
1639395,1878,1860,1866
1639405,1874,1859,1861
1639415,1875,1867,1861
1639425,1871,1856,1858
1639435,1867,1857,1857
1639445,1866,1857,1854
1639455,1866,1854,1850
1639465,1866,1862,1847
1639475,1858,1851,1843
1639485,1857,1851,1843
1639495,1859,1850,1845
1639505,1855,1853,1840
1639515,1859,1862,1842
1639525,1856,1855,1841
1639535,1858,1853,1845
1639545,1858,1856,1843
1639555,1862,1854,1846
1639565,1862,1852,1852
1639575,1860,1853,1846
1639585,1862,1845,1847
1639595,1862,1855,1854
1639605,1866,1851,1846
1639615,1867,1856,1851
1639625,1859,1851,1843
1639635,1856,1854,1850
1639645,1858,1853,1847
1639655,1858,1852,1842
1639665,1859,1860,1849
1639675,1857,1853,1847
1639685,1854,1844,1837
1639695,1852,1853,1840
1639705,1850,1851,1844
1639715,1858,1855,1841
1639725,1847,1847,1845
1639735,1851,1847,1840
1639745,1853,1858,1844
1639755,1851,1850,1840
1639765,1857,1863,1843
1639775,1855,1846,1839
1639785,1851,1849,1840
1639795,1853,1849,1841
1639805,1850,1846,1840
1639815,1856,1860,1849
1639825,1856,1853,1840
1639835,1860,1850,1846
1639845,1859,1862,1840
1639855,1861,1846,1840
1639865,1865,1853,1850
1639875,1859,1853,1841
1639885,1861,1853,1840
1639895,1865,1851,1840
1639905,1864,1849,1842
1639915,1859,1845,1841
1639925,1857,1841,1841
1639935,1859,1843,1840
1639945,1856,1859,1843
1639955,1856,1851,1840
1639965,1857,1854,1841
1639975,1849,1845,1840
1639985,1851,1845,1838
1639995,1850,1845,1840
1640005,1851,1844,1842
1640015,1853,1844,1841
1640025,1847,1850,1842
1640035,1847,1846,1845
1640045,1855,1853,1844
1640055,1855,1853,1852
1640065,1856,1856,1847
1640075,1851,1851,1850
1640085,1859,1847,1846
1640095,1859,1856,1850
1640105,1861,1849,1846
1640115,1863,1850,1851
1640125,1862,1843,1841
1640135,1859,1853,1847
1640145,1866,1860,1851
1640155,1862,1856,1847
1640165,1861,1856,1850
1640175,1861,1855,1847
1640185,1865,1857,1851
1640195,1869,1851,1851
1640205,1872,1851,1852
1640215,1870,1858,1856
1640225,1872,1855,1856
1640235,1877,1854,1858
1640245,1883,1858,1859
1640255,1887,1856,1869
1640265,1895,1865,1872
1640275,1893,1859,1872
1640285,1904,1869,1882
1640295,1906,1872,1887
1640305,1908,1865,1886
1640315,1905,1866,1887
1640325,1904,1862,1885
1640335,1904,1872,1882
1640345,1902,1863,1890
1640355,1891,1861,1875
1640365,1893,1865,1879
1640375,1874,1855,1872
1640385,1874,1858,1872
1640395,1875,1870,1866
1640405,1871,1856,1857
1640415,1872,1859,1865
1640425,1866,1841,1847
1640435,1869,1856,1860
1640445,1862,1858,1859
1640455,1866,1848,1851
1640465,1861,1853,1854
1640475,1853,1847,1843
1640485,1862,1851,1846
1640495,1856,1858,1853
1640505,1857,1851,1847
1640515,1856,1855,1850
1640525,1858,1854,1846
1640535,1867,1858,1856
1640545,1867,1857,1853
1640555,1862,1854,1855
1640565,1871,1853,1857
1640575,1870,1854,1856
1640585,1865,1855,1859
1640595,1872,1852,1858
1640605,1867,1855,1857
1640615,1870,1856,1858
1640625,1865,1853,1853
1640635,1871,1861,1859
1640645,1867,1856,1859
1640655,1861,1852,1851
1640665,1867,1851,1853
1640675,1862,1851,1849
1640685,1865,1859,1856
1640695,1856,1857,1850
1640705,1857,1849,1847
1640715,1860,1854,1851
1640725,1861,1857,1848
1640735,1865,1856,1855
1640745,1858,1856,1853
1640755,1861,1853,1849
1640765,1863,1852,1851
1640775,1862,1850,1851
1640785,1862,1852,1852
1640795,1865,1853,1856
1640805,1861,1847,1851
1640815,1862,1851,1855
1640825,1861,1853,1847
1640835,1862,1858,1851
1640845,1868,1856,1853
1640855,1856,1855,1854
1640865,1866,1859,1856
1640875,1862,1853,1856
1640885,1862,1855,1856
1640895,1862,1853,1855
1640905,1859,1847,1851
1640915,1862,1859,1855
1640925,1860,1850,1856
1640935,1862,1854,1855
1640945,1858,1859,1851
1640955,1856,1851,1850
1640965,1856,1866,1856
1640975,1858,1850,1849
1640985,1861,1866,1853
1640995,1857,1853,1846
1641005,1854,1845,1849
1641015,1861,1853,1850
1641025,1856,1853,1856
1641035,1857,1861,1855
1641045,1861,1846,1849
1641055,1866,1854,1850
1641065,1865,1855,1861
1641075,1872,1857,1860
1641085,1875,1860,1870
1641095,1874,1859,1867
1641105,1887,1862,1872
1641115,1893,1867,1881
1641125,1890,1856,1878
1641135,1895,1866,1886
1641145,1894,1863,1885
1641155,1897,1862,1878
1641165,1889,1871,1888
1641175,1892,1863,1877
1641185,1885,1861,1875
1641195,1875,1857,1872
1641205,1878,1856,1872
1641215,1873,1863,1872
1641225,1872,1858,1865
1641235,1869,1859,1868
1641245,1865,1852,1858
1641255,1861,1856,1861
1641265,1862,1862,1856
1641275,1859,1853,1851
1641285,1859,1856,1846
1641295,1856,1840,1841
1641305,1857,1847,1849
1641315,1855,1850,1843
1641325,1851,1845,1843
1641335,1855,1853,1843
1641345,1859,1841,1843
1641355,1857,1849,1849
1641365,1861,1855,1853
1641375,1857,1854,1853
1641385,1865,1856,1850
1641395,1865,1855,1854
1641405,1865,1858,1855
1641415,1869,1857,1861
1641425,1870,1850,1855
1641435,1869,1853,1856
1641445,1871,1850,1856
1641455,1870,1857,1861
1641465,1866,1863,1861
1641475,1863,1856,1854
1641485,1862,1858,1857
1641495,1860,1846,1850
1641505,1861,1855,1855
1641515,1865,1858,1856
1641525,1861,1850,1849
1641535,1861,1853,1847
1641545,1862,1845,1847
1641555,1862,1856,1853
1641565,1858,1859,1855
1641575,1857,1853,1852
1641585,1861,1856,1850
1641595,1858,1845,1846
1641605,1860,1862,1855
1641615,1863,1855,1853
1641625,1859,1845,1843
1641635,1861,1849,1851
1641645,1864,1845,1843
1641655,1868,1852,1850
1641665,1866,1855,1855
1641675,1862,1851,1853
1641685,1861,1856,1855
1641695,1861,1853,1852
1641705,1861,1863,1855
1641715,1862,1859,1859
1641725,1863,1854,1851
1641735,1860,1858,1853
1641745,1863,1850,1849
1641755,1858,1858,1855
1641765,1862,1849,1853
1641775,1856,1847,1846
1641785,1855,1855,1854
1641795,1856,1852,1851
1641805,1861,1857,1853
1641815,1855,1853,1849
1641825,1857,1856,1849
1641835,1861,1862,1851
1641845,1869,1857,1855
1641855,1873,1861,1862
1641865,1877,1858,1865
1641875,1884,1858,1869
1641885,1895,1858,1877
1641895,1891,1861,1879
1641905,1898,1872,1886
1641915,1899,1870,1885
1641925,1899,1869,1882
1641935,1900,1872,1889
