timestamp_ms_device,ppg_finger1,ppg_finger2,ppg_finger3
6388,1862,1855,1856
1066398,1866,1857,1851
1066408,1868,1856,1855
1066418,1868,1856,1853
1066428,1865,1856,1857
1066438,1872,1856,1851
1066448,1863,1856,1855
1066458,1871,1856,1852
1066468,1869,1856,1854
1066478,1869,1856,1851
1066488,1866,1857,1857
1066498,1864,1856,1853
1066508,1867,1858,1858
1066518,1867,1856,1854
1066528,1867,1858,1854
1066538,1870,1855,1856
1066548,1865,1857,1855
1066558,1867,1856,1853
1066568,1871,1854,1856
1066578,1869,1856,1855
1066588,1865,1853,1853
1066598,1867,1858,1855
1066608,1862,1859,1856
1066618,1867,1858,1852
1066628,1866,1858,1856
1066638,1869,1856,1853
1066648,1867,1855,1856
1066658,1869,1857,1854
1066668,1867,1854,1856
1066678,1868,1850,1851
1066688,1866,1857,1851
1066698,1863,1856,1851
1066708,1863,1853,1854
1066718,1866,1855,1857
1066728,1863,1855,1858
1066738,1871,1857,1866
1066748,1869,1858,1865
1066758,1871,1860,1872
1066768,1870,1857,1881
1066778,1870,1857,1889
1066788,1869,1857,1895
1066798,1872,1857,1895
1066808,1872,1857,1902
1066818,1873,1857,1904
1066828,1871,1857,1904
1066838,1872,1859,1904
1066848,1871,1859,1902
1066858,1870,1857,1904
1066868,1871,1856,1903
1066878,1872,1856,1899
1066888,1870,1858,1893
1066898,1867,1856,1891
1066908,1868,1856,1893
1066918,1872,1853,1893
1066928,1867,1854,1888
1066938,1869,1853,1890
1066948,1867,1856,1883
1066958,1869,1858,1882
1066968,1868,1855,1883
1066978,1867,1857,1876
1066988,1869,1856,1873
1066998,1863,1854,1872
1067008,1861,1853,1871
1067018,1860,1855,1871
1067028,1867,1855,1870
1067038,1863,1856,1865
1067048,1866,1854,1863
1067058,1863,1854,1866
1067068,1867,1856,1866
1067078,1867,1855,1860
1067088,1868,1855,1862
1067098,1866,1856,1863
1067108,1867,1853,1857
1067118,1871,1853,1857
1067128,1863,1855,1854
1067138,1865,1856,1852
1067148,1867,1853,1854
1067158,1861,1851,1855
1067168,1862,1855,1847
1067178,1866,1856,1849
1067188,1866,1858,1849
1067198,1867,1855,1850
1067208,1868,1856,1846
1067218,1864,1853,1847
1067228,1867,1851,1847
1067238,1862,1851,1841
1067248,1861,1850,1841
1067258,1867,1855,1843
1067268,1865,1854,1844
1067278,1862,1856,1840
1067288,1867,1853,1843
1067298,1865,1854,1841
1067308,1861,1856,1840
1067318,1862,1854,1840
1067328,1865,1853,1839
1067338,1870,1855,1841
1067348,1867,1847,1840
1067358,1869,1855,1840
1067368,1861,1856,1839
1067378,1867,1856,1840
1067388,1864,1856,1840
1067398,1865,1855,1842
1067408,1865,1861,1840
1067418,1866,1856,1840
1067428,1867,1857,1843
1067438,1866,1855,1840
1067448,1862,1856,1842
1067458,1866,1857,1840
1067468,1867,1856,1839
1067478,1867,1854,1842
1067488,1868,1855,1842
1067498,1866,1856,1840
1067508,1866,1856,1840
1067518,1865,1858,1841
1067528,1863,1857,1840
1067538,1869,1855,1841
1067548,1863,1856,1841
1067558,1865,1855,1840
1067568,1868,1858,1842
1067578,1867,1859,1841
1067588,1866,1853,1840
1067598,1867,1853,1841
1067608,1861,1856,1843
1067618,1867,1856,1843
1067628,1865,1854,1841
1067638,1863,1855,1840
1067648,1863,1853,1841
1067658,1869,1856,1845
1067668,1867,1854,1843
1067678,1867,1853,1849
1067688,1863,1858,1849
1067698,1859,1863,1854
1067708,1869,1857,1861
1067718,1863,1851,1859
1067728,1866,1862,1867
1067738,1867,1865,1877
1067748,1868,1852,1878
1067758,1872,1857,1881
1067768,1872,1856,1888
1067778,1876,1867,1893
1067789,1871,1861,1891
1067799,1861,1852,1893
1067809,1867,1857,1886
1067819,1869,1857,1885
1067829,1871,1856,1879
1067839,1874,1861,1883
1067849,1871,1851,1881
1067859,1872,1859,1872
1067869,1866,1850,1875
1067879,1869,1856,1875
1067889,1867,1858,1873
1067899,1866,1855,1872
1067909,1868,1856,1872
1067919,1870,1849,1865
1067929,1867,1851,1860
1067939,1872,1856,1860
1067949,1870,1852,1855
1067959,1865,1857,1859
1067969,1860,1849,1855
1067979,1867,1850,1856
1067989,1872,1866,1855
1067999,1862,1853,1856
1068009,1867,1856,1856
1068019,1856,1850,1850
1068029,1858,1851,1852
1068039,1864,1859,1855
1068049,1862,1854,1855
1068059,1869,1855,1857
1068069,1861,1849,1858
1068079,1866,1852,1853
1068089,1867,1859,1856
1068099,1866,1850,1851
1068109,1867,1856,1858
1068119,1860,1850,1856
1068129,1862,1853,1851
1068139,1869,1863,1854
1068149,1867,1853,1849
1068159,1869,1856,1854
1068169,1869,1853,1849
1068179,1866,1855,1851
1068189,1872,1851,1845
1068199,1863,1851,1843
1068209,1863,1857,1846
1068219,1861,1846,1845
1068229,1861,1853,1846
1068239,1865,1857,1845
1068249,1857,1855,1846
1068259,1869,1857,1853
1068269,1862,1855,1846
1068279,1866,1852,1840
1068289,1872,1853,1847
1068299,1861,1854,1843
1068309,1869,1864,1851
1068319,1868,1851,1844
1068329,1863,1849,1846
1068339,1866,1859,1846
1068349,1859,1854,1841
1068359,1871,1858,1853
1068369,1868,1856,1841
1068379,1863,1860,1841
1068389,1869,1860,1845
1068399,1862,1855,1842
1068409,1873,1861,1846
1068419,1866,1854,1846
1068429,1862,1852,1846
1068439,1870,1854,1840
1068449,1866,1856,1840
1068459,1867,1856,1840
1068469,1862,1855,1841
1068479,1865,1859,1840
1068489,1863,1859,1844
1068499,1867,1858,1843
1068509,1872,1862,1840
1068519,1871,1856,1842
1068529,1867,1845,1845
1068539,1866,1856,1842
1068549,1866,1856,1834
1068559,1870,1861,1843
1068569,1868,1866,1863
1068579,1861,1858,1840
1068589,1866,1861,1861
1068599,1862,1859,1841
1068609,1872,1859,1854
1068619,1872,1861,1857
1068629,1866,1847,1842
1068639,1867,1846,1837
1068649,1867,1855,1846
1068659,1872,1872,1867
1068669,1870,1863,1858
1068679,1862,1857,1830
1068689,1870,1817,1856
1068699,1865,1867,1862
1068709,1872,1863,1872
1068719,1872,1856,1879
1068729,1862,1858,1881
1068739,1870,1854,1883
1068749,1872,1851,1889
1068759,1871,1860,1888
1068769,1872,1855,1898
1068779,1872,1846,1890
1068789,1867,1859,1883
1068799,1867,1861,1882
1068809,1872,1865,1881
1068819,1871,1863,1878
1068829,1869,1859,1877
1068839,1872,1854,1882
1068849,1868,1852,1871
1068859,1872,1858,1874
1068869,1872,1861,1889
1068879,1866,1867,1860
1068889,1869,1857,1867
1068899,1865,1859,1863
1068909,1870,1858,1863
1068919,1863,1859,1869
1068929,1857,1860,1861
1068939,1867,1852,1862
1068949,1862,1842,1854
1068959,1871,1834,1856
1068969,1872,1870,1856
1068979,1869,1844,1856
1068989,1869,1855,1853
1068999,1858,1846,1855
1069009,1860,1854,1851
1069019,1871,1865,1856
1069029,1863,1858,1851
1069039,1869,1857,1854
1069049,1863,1851,1849
1069059,1863,1854,1850
1069069,1871,1862,1854
1069079,1862,1855,1847
1069089,1870,1859,1867
1069099,1859,1851,1856
1069109,1867,1854,1851
1069119,1872,1858,1853
1069129,1865,1855,1848
1069139,1867,1856,1846
1069149,1866,1849,1842
1069159,1866,1857,1840
1069169,1869,1875,1859
1069179,1868,1856,1845
1069189,1864,1850,1838
1069199,1863,1847,1840
1069209,1866,1855,1843
1069219,1867,1857,1845
1069229,1859,1852,1846
1069239,1866,1856,1844
1069249,1866,1847,1842
1069259,1867,1851,1843
1069269,1868,1858,1845
1069279,1864,1854,1843
1069289,1870,1859,1850
1069299,1860,1851,1849
1069309,1870,1847,1847
1069319,1871,1866,1850
1069329,1859,1856,1847
1069339,1862,1859,1850
1069349,1863,1846,1842
1069359,1861,1854,1843
1069369,1873,1855,1849
1069379,1869,1854,1850
1069389,1869,1855,1846
1069399,1866,1854,1846
1069409,1863,1853,1847
1069419,1865,1853,1849
1069429,1858,1858,1843
1069439,1863,1859,1851
1069449,1865,1847,1846
1069459,1871,1856,1841
1069469,1872,1853,1849
1069479,1862,1856,1843
1069489,1898,1859,1845
1069499,1870,1851,1845
1069509,1862,1860,1847
1069519,1872,1859,1851
1069529,1858,1856,1847
1069539,1866,1858,1854
1069549,1870,1854,1845
1069559,1855,1848,1843
1069569,1887,1861,1842
1069579,1870,1853,1847
1069589,1873,1861,1850
1069599,1838,1850,1841
1069609,1872,1847,1847
1069619,1860,1852,1845
1069629,1862,1856,1850
1069639,1872,1863,1847
1069649,1867,1857,1850
1069659,1861,1853,1847
1069669,1859,1857,1847
1069679,1865,1855,1846
1069689,1877,1866,1850
1069699,1869,1856,1843
1069709,1883,1849,1846
1069719,1877,1859,1847
1069729,1865,1849,1847
1069739,1865,1856,1847
1069749,1883,1850,1854
1069759,1858,1857,1856
1069769,1869,1859,1855
1069779,1871,1856,1857
1069789,1870,1855,1867
1069799,1872,1855,1871
1069809,1874,1855,1876
1069819,1881,1856,1882
1069829,1863,1855,1888
1069839,1857,1856,1888
1069849,1843,1855,1890
1069859,1874,1857,1887
1069869,1872,1856,1889
1069879,1862,1856,1887
1069889,1875,1861,1889
1069899,1859,1858,1879
1069909,1863,1859,1879
1069919,1872,1861,1875
1069929,1871,1852,1874
1069939,1873,1863,1884
1069949,1867,1858,1872
1069959,1872,1843,1867
1069969,1871,1855,1872
1069979,1867,1856,1871
1069989,1869,1862,1871
1069999,1872,1852,1869
1070009,1859,1856,1859
1070019,1866,1856,1861
1070029,1862,1853,1860
1070039,1867,1859,1857
1070049,1870,1856,1857
1070059,1872,1847,1850
1070069,1871,1854,1854
1070079,1870,1855,1854
1070089,1868,1861,1857
1070099,1867,1861,1855
1070109,1863,1854,1850
1070119,1845,1865,1858
1070129,1862,1856,1856
1070139,1869,1856,1856
1070149,1870,1856,1857
1070159,1872,1853,1855
1070169,1871,1852,1856
1070179,1866,1855,1851
1070189,1873,1858,1854
1070199,1869,1861,1856
1070209,1865,1849,1854
1070219,1866,1861,1855
1070229,1867,1851,1847
1070239,1872,1860,1851
1070249,1868,1860,1853
1070259,1866,1857,1853
1070269,1870,1856,1851
1070279,1857,1840,1847
1070289,1872,1846,1846
1070299,1872,1856,1845
1070309,1867,1858,1850
1070319,1872,1857,1859
1070329,1855,1846,1842
1070339,1867,1856,1844
1070349,1863,1855,1846
1070359,1866,1846,1843
1070369,1865,1857,1847
1070379,1858,1842,1846
1070389,1863,1849,1847
1070399,1872,1853,1850
1070409,1865,1847,1850
1070419,1867,1856,1854
1070429,1866,1854,1846
1070439,1869,1856,1847
1070449,1867,1862,1844
1070459,1869,1851,1845
1070469,1870,1855,1845
1070479,1865,1850,1849
1070489,1863,1851,1850
1070499,1872,1862,1850
1070509,1863,1850,1846
1070519,1869,1856,1848
1070529,1862,1855,1843
1070539,1867,1857,1854
1070549,1863,1861,1847
1070559,1863,1856,1844
1070569,1868,1856,1847
1070579,1866,1845,1844
1070589,1866,1854,1842
1070599,1872,1856,1844
1070609,1866,1851,1849
1070619,1866,1856,1845
1070629,1862,1855,1851
1070639,1867,1863,1854
1070649,1869,1856,1852
1070659,1863,1852,1845
1070669,1870,1854,1845
1070679,1863,1843,1850
1070689,1867,1855,1848
1070699,1865,1858,1846
1070709,1869,1854,1842
1070719,1866,1853,1851
1070729,1861,1855,1846
1070739,1859,1854,1847
1070749,1869,1858,1855
1070759,1865,1850,1844
1070769,1866,1856,1850
1070779,1866,1847,1849
1070789,1872,1851,1854
1070799,1871,1851,1858
1070809,1867,1851,1868
1070819,1869,1858,1873
1070829,1859,1850,1877
1070839,1862,1855,1882
1070849,1865,1858,1886
1070859,1863,1852,1887
1070869,1867,1854,1895
1070879,1871,1858,1886
1070889,1872,1845,1888
1070899,1871,1846,1887
1070909,1871,1853,1887
1070919,1872,1861,1885
1070929,1867,1853,1886
1070939,1863,1856,1877
1070949,1867,1856,1882
1070959,1862,1855,1877
1070969,1871,1872,1877
1070979,1871,1850,1871
1070989,1871,1856,1866
1070999,1869,1859,1872
1071009,1872,1855,1869
1071019,1876,1858,1867
1071029,1867,1846,1863
1071039,1863,1847,1863
1071049,1869,1855,1862
1071059,1865,1855,1859
1071069,1867,1861,1862
1071079,1858,1862,1857
1071089,1863,1852,1853
1071099,1870,1858,1858
1071109,1870,1856,1856
1071119,1871,1858,1856
1071129,1871,1863,1859
1071139,1863,1857,1857
1071149,1868,1853,1860
1071159,1862,1855,1856
1071169,1867,1853,1859
1071179,1861,1858,1861
1071189,1861,1850,1855
1071199,1869,1858,1857
1071209,1867,1854,1856
1071219,1867,1866,1857
1071229,1870,1859,1855
1071239,1859,1852,1853
1071249,1872,1856,1855
1071259,1865,1847,1854
1071269,1869,1858,1856
1071279,1867,1863,1855
1071289,1862,1850,1849
1071299,1869,1859,1855
1071309,1863,1857,1847
1071319,1872,1865,1851
1071329,1867,1862,1853
1071339,1868,1847,1851
1071349,1869,1856,1852
1071359,1867,1851,1847
1071369,1867,1858,1855
1071379,1869,1851,1852
1071389,1866,1851,1847
1071399,1867,1858,1849
1071409,1863,1850,1850
1071419,1869,1858,1850
1071429,1869,1859,1852
1071439,1870,1855,1853
1071449,1868,1857,1851
1071459,1870,1853,1846
1071469,1868,1855,1845
1071479,1869,1856,1851
1071489,1869,1855,1854
1071499,1867,1857,1853
1071509,1870,1857,1845
1071519,1865,1859,1851
1071529,1871,1862,1855
1071539,1863,1853,1850
1071549,1867,1856,1852
1071559,1865,1841,1841
1071569,1865,1854,1845
1071579,1872,1859,1847
1071589,1867,1856,1847
1071599,1867,1851,1849
1071609,1861,1840,1844
1071619,1866,1855,1851
1071629,1871,1864,1847
1071639,1863,1854,1846
1071649,1867,1862,1846
1071659,1857,1855,1846
1071669,1869,1854,1847
1071679,1867,1855,1849
1071689,1861,1856,1845
1071699,1868,1856,1851
1071709,1863,1854,1849
1071719,1871,1857,1851
1071729,1868,1857,1846
1071739,1861,1850,1845
1071749,1870,1855,1850
1071759,1866,1847,1842
1071769,1866,1856,1849
1071779,1870,1859,1847
1071789,1863,1854,1847
1071799,1862,1856,1853
1071809,1868,1853,1849
1071819,1863,1858,1853
1071829,1871,1865,1857
1071839,1858,1856,1856
1071849,1870,1859,1859
1071859,1858,1849,1863
1071869,1869,1857,1871
1071879,1866,1863,1877
1071889,1863,1853,1879
1071899,1863,1851,1888
1071909,1862,1840,1889
1071919,1870,1852,1891
1071929,1865,1862,1897
1071939,1867,1855,1891
1071949,1870,1857,1893
1071959,1865,1847,1888
1071969,1866,1851,1879
1071979,1871,1856,1886
1071989,1867,1853,1876
1071999,1869,1854,1882
1072009,1861,1851,1878
1072019,1866,1853,1874
1072029,1869,1856,1874
1072039,1863,1854,1874
1072049,1865,1861,1872
1072059,1862,1855,1869
1072069,1861,1855,1872
1072079,1872,1861,1869
1072089,1866,1853,1857
1072099,1866,1850,1856
1072109,1868,1842,1855
1072119,1866,1846,1856
1072129,1867,1858,1855
1072139,1866,1856,1853
1072149,1863,1858,1856
1072159,1867,1851,1855
1072169,1859,1856,1855
1072179,1866,1854,1858
1072189,1866,1852,1856
1072199,1869,1856,1866
1072209,1867,1850,1854
1072219,1866,1852,1853
1072229,1871,1853,1851
1072239,1859,1855,1855
1072249,1868,1862,1857
1072259,1860,1856,1856
1072269,1860,1855,1853
1072279,1872,1855,1855
1072289,1867,1853,1851
1072299,1874,1858,1854
1072309,1867,1852,1854
1072319,1872,1851,1850
1072329,1867,1858,1854
1072339,1861,1854,1846
1072349,1873,1856,1845
1072359,1865,1856,1852
1072369,1862,1856,1851
1072379,1861,1861,1851
1072389,1866,1861,1846
1072399,1872,1861,1849
1072409,1872,1858,1845
1072419,1861,1847,1849
1072429,1872,1853,1846
1072439,1865,1851,1850
1072449,1868,1859,1851
1072459,1869,1861,1851
1072469,1862,1851,1850
1072479,1863,1857,1847
1072489,1861,1855,1851
1072499,1865,1856,1845
1072509,1864,1860,1847
1072519,1866,1857,1847
1072529,1871,1854,1847
1072539,1871,1849,1851
1072549,1866,1861,1853
1072559,1867,1859,1849
1072569,1863,1845,1851
1072579,1863,1857,1846
1072589,1863,1856,1846
1072599,1870,1860,1849
1072609,1869,1856,1850
1072619,1869,1849,1845
1072629,1869,1857,1847
1072639,1871,1855,1847
1072649,1870,1863,1851
1072659,1866,1852,1847
1072669,1863,1847,1845
1072679,1867,1855,1846
1072689,1864,1853,1847
1072699,1867,1862,1850
1072709,1866,1863,1844
1072719,1871,1854,1843
1072729,1866,1862,1849
1072739,1867,1857,1850
1072749,1869,1862,1851
1072759,1868,1855,1854
1072769,1865,1856,1848
1072779,1869,1856,1849
1072789,1870,1847,1853
1072799,1862,1860,1847
1072809,1866,1854,1855
1072819,1863,1855,1847
1072829,1872,1861,1845
1072839,1866,1856,1846
1072849,1869,1863,1851
1072859,1866,1863,1854
1072869,1869,1856,1854
1072879,1869,1854,1861
1072889,1865,1854,1856
1072899,1867,1857,1869
1072909,1870,1861,1872
1072919,1863,1857,1874
1072929,1869,1857,1881
1072939,1862,1845,1886
1072949,1872,1858,1890
1072959,1871,1863,1895
1072969,1867,1855,1899
1072979,1871,1855,1899
1072989,1862,1843,1891
1072999,1868,1853,1890
1073009,1872,1865,1892
1073019,1870,1857,1881
1073029,1872,1857,1884
1073039,1862,1851,1882
1073049,1868,1858,1876
1073059,1868,1862,1875
1073069,1867,1856,1874
1073079,1865,1856,1872
1073089,1861,1847,1870
1073099,1863,1851,1872
1073109,1869,1852,1869
1073119,1862,1849,1861
1073129,1865,1854,1859
1073139,1863,1856,1853
1073149,1867,1856,1857
1073159,1870,1854,1856
1073169,1863,1855,1855
1073179,1863,1853,1854
1073189,1866,1847,1855
1073199,1863,1857,1855
1073209,1868,1855,1853
1073219,1863,1851,1853
1073229,1865,1856,1855
1073239,1869,1856,1857
1073249,1869,1853,1856
1073259,1872,1865,1859
1073269,1860,1847,1855
1073279,1868,1854,1858
1073289,1861,1842,1853
1073299,1861,1847,1850
1073309,1871,1856,1857
1073319,1867,1856,1855
1073329,1866,1856,1853
1073339,1863,1854,1851
1073349,1868,1856,1851
1073359,1867,1860,1855
1073369,1864,1847,1849
1073379,1868,1859,1847
1073389,1860,1851,1851
1073399,1866,1851,1849
1073409,1867,1859,1852
1073419,1869,1856,1843
1073429,1863,1856,1847
1073439,1861,1861,1851
1073449,1870,1856,1850
1073459,1866,1855,1854
1073469,1865,1851,1851
1073479,1868,1856,1849
1073489,1867,1847,1847
1073499,1863,1853,1845
1073509,1871,1851,1850
1073519,1867,1851,1847
1073529,1872,1855,1849
1073539,1861,1850,1843
1073549,1867,1855,1845
1073559,1869,1867,1846
1073569,1866,1856,1848
1073579,1865,1870,1854
1073589,1859,1858,1850
1073599,1865,1856,1849
1073609,1866,1850,1851
1073619,1869,1847,1847
1073629,1875,1862,1856
1073639,1865,1853,1850
1073649,1863,1850,1851
1073659,1872,1866,1849
1073669,1868,1857,1846
1073679,1869,1871,1853
1073689,1863,1862,1854
1073699,1865,1856,1849
1073709,1869,1861,1851
1073719,1870,1855,1851
1073729,1870,1861,1853
1073739,1870,1858,1847
1073749,1866,1853,1845
1073759,1870,1862,1849
1073769,1867,1855,1847
1073779,1870,1858,1851
1073789,1863,1859,1850
1073799,1863,1852,1843
1073809,1871,1858,1847
1073819,1869,1850,1847
1073829,1872,1857,1847
1073839,1872,1852,1851
1073849,1869,1846,1843
1073859,1865,1860,1850
1073869,1869,1852,1853
1073879,1865,1863,1855
1073889,1861,1860,1859
1073899,1870,1858,1858
1073909,1869,1862,1869
1073919,1865,1856,1872
1073929,1869,1867,1883
1073939,1871,1856,1887
1073949,1863,1857,1891
1073959,1872,1858,1897
1073969,1872,1855,1898
1073979,1872,1869,1903
1073989,1869,1856,1902
1073999,1865,1847,1901
1074009,1867,1861,1895
1074019,1868,1856,1891
1074029,1872,1859,1889
1074039,1872,1862,1887
1074049,1869,1853,1884
1074059,1872,1853,1885
1074069,1870,1855,1878
1074079,1872,1856,1878
1074089,1870,1855,1877
1074099,1865,1855,1870
1074109,1867,1855,1872
1074119,1863,1856,1871
1074129,1869,1858,1870
1074139,1863,1863,1862
1074149,1865,1851,1854
1074159,1869,1856,1860
1074169,1869,1856,1855
1074179,1867,1857,1858
1074189,1869,1856,1855
1074199,1862,1848,1855
1074209,1867,1856,1851
1074219,1867,1855,1846
1074229,1867,1856,1851
1074239,1867,1856,1855
1074249,1868,1851,1853
1074259,1872,1861,1856
1074269,1865,1840,1850
1074279,1867,1861,1858
1074289,1867,1856,1858
1074299,1862,1849,1856
1074309,1867,1855,1853
1074319,1858,1849,1854
1074329,1869,1861,1852
1074339,1870,1868,1855
1074349,1865,1857,1852
1074359,1863,1857,1851
1074369,1858,1857,1845
1074379,1869,1856,1851
1074389,1863,1862,1853
1074399,1862,1854,1851
1074409,1870,1859,1850
1074419,1862,1850,1846
1074429,1861,1856,1850
1074439,1870,1865,1849
1074449,1869,1856,1845
1074459,1869,1861,1846
1074469,1863,1851,1849
1074479,1863,1855,1841
1074489,1871,1859,1851
1074499,1865,1854,1846
1074509,1871,1854,1846
1074519,1866,1845,1846
1074529,1865,1843,1847
1074539,1868,1853,1854
1074549,1866,1852,1851
1074559,1869,1855,1847
1074569,1864,1850,1842
1074579,1865,1856,1846
1074589,1866,1851,1847
1074599,1864,1851,1847
1074609,1863,1855,1847
1074619,1861,1842,1849
1074629,1867,1856,1851
1074639,1870,1862,1849
1074649,1863,1856,1847
1074659,1869,1855,1844
1074669,1861,1852,1842
1074679,1870,1850,1847
1074689,1868,1853,1847
1074699,1863,1855,1845
1074709,1867,1854,1843
1074719,1858,1842,1840
1074729,1863,1845,1843
1074739,1867,1854,1846
1074749,1863,1854,1851
1074759,1869,1860,1849
1074769,1861,1851,1844
1074779,1866,1858,1845
1074789,1869,1862,1844
1074799,1870,1847,1847
1074809,1864,1854,1850
1074819,1865,1847,1845
1074829,1867,1853,1847
1074839,1865,1866,1850
1074849,1863,1851,1845
1074859,1863,1858,1850
1074869,1865,1857,1845
1074879,1867,1855,1851
1074889,1872,1859,1853
1074899,1862,1855,1850
1074909,1869,1863,1854
1074919,1867,1846,1845
1074929,1857,1851,1843
1074939,1869,1855,1851
1074949,1866,1856,1847
1074959,1868,1872,1855
1074969,1866,1862,1847
1074979,1867,1852,1846
1074989,1868,1862,1856
1074999,1868,1856,1850
1075009,1875,1863,1854
1075019,1869,1857,1859
1075029,1863,1843,1858
1075039,1873,1857,1869
1075049,1863,1850,1875
1075059,1870,1859,1882
1075069,1863,1866,1890
1075079,1857,1855,1890
1075089,1868,1861,1901
1075099,1869,1861,1900
1075109,1873,1858,1904
1075119,1872,1857,1903
1075129,1868,1851,1898
1075139,1872,1854,1898
1075149,1867,1853,1894
1075159,1872,1858,1893
1075169,1872,1861,1887
1075179,1866,1856,1888
1075189,1870,1862,1884
1075199,1867,1854,1882
1075209,1870,1858,1879
1075219,1866,1859,1878
1075229,1870,1854,1872
1075239,1871,1852,1872
1075249,1867,1853,1871
1075259,1871,1859,1872
1075269,1867,1856,1869
1075279,1863,1850,1866
1075289,1863,1859,1862
1075299,1859,1857,1861
1075309,1866,1867,1857
1075319,1862,1860,1859
1075329,1863,1849,1856
1075339,1867,1852,1855
1075349,1869,1853,1850
1075359,1871,1854,1862
1075369,1871,1853,1857
1075379,1862,1847,1851
1075389,1866,1859,1858
1075399,1867,1854,1853
1075409,1870,1857,1825
1075419,1870,1877,1867
1075429,1862,1853,1846
1075439,1871,1854,1849
1075449,1862,1857,1850
1075459,1869,1863,1856
1075469,1870,1852,1857
1075479,1870,1853,1849
1075489,1871,1856,1853
1075499,1869,1862,1853
1075509,1869,1855,1848
1075519,1871,1865,1846
1075529,1859,1856,1849
1075539,1867,1856,1853
1075549,1863,1853,1840
1075559,1871,1856,1856
1075569,1867,1861,1851
1075579,1871,1853,1853
1075589,1870,1860,1855
1075599,1863,1850,1850
1075609,1872,1855,1846
1075619,1867,1845,1843
1075629,1860,1853,1843
1075639,1867,1856,1854
1075649,1857,1850,1842
1075659,1862,1862,1840
1075669,1871,1861,1853
1075679,1865,1847,1849
1075689,1869,1857,1851
1075699,1858,1840,1846
1075709,1865,1852,1856
1075719,1867,1850,1869
1075729,1862,1837,1845
1075739,1866,1877,1835
1075749,1863,1846,1840
1075759,1863,1850,1865
1075769,1872,1869,1846
1075779,1863,1856,1824
1075789,1870,1856,1855
1075799,1859,1862,1851
1075809,1865,1838,1846
1075819,1868,1831,1847
1075829,1865,1857,1840
1075839,1872,1857,1854
1075849,1860,1856,1845
1075859,1868,1872,1850
1075869,1870,1856,1852
1075879,1866,1854,1842
1075889,1869,1856,1852
1075899,1857,1850,1843
1075909,1870,1852,1883
1075919,1863,1856,1850
1075929,1859,1849,1847
1075939,1866,1853,1851
1075949,1859,1844,1851
1075959,1864,1858,1847
1075969,1871,1861,1849
1075979,1870,1855,1847
1075989,1872,1853,1846
1075999,1866,1820,1844
1076009,1861,1873,1855
1076019,1863,1870,1827
1076029,1863,1853,1851
1076039,1863,1856,1850
1076049,1861,1852,1845
1076059,1859,1856,1848
1076069,1867,1856,1847
1076079,1868,1855,1845
1076089,1864,1856,1852
1076099,1863,1855,1856
1076109,1866,1858,1863
1076119,1863,1857,1867
1076129,1867,1854,1875
1076139,1866,1854,1881
1076149,1865,1849,1885
1076159,1863,1855,1889
1076169,1869,1854,1904
1076179,1870,1859,1901
1076189,1869,1855,1902
1076199,1866,1853,1904
1076209,1870,1847,1898
1076219,1867,1858,1891
1076229,1870,1851,1894
1076239,1865,1872,1897
1076249,1869,1847,1895
1076259,1872,1855,1887
1076269,1878,1853,1888
1076279,1867,1853,1875
1076289,1874,1866,1884
1076299,1871,1856,1873
1076309,1867,1855,1873
1076319,1877,1856,1873
1076329,1870,1853,1872
1076339,1872,1867,1872
1076349,1871,1854,1861
1076359,1863,1849,1859
1076369,1855,1863,1858
1076379,1852,1853,1856
1076389,1888,1863,1857
1076399,1863,1861,1861
1076409,1869,1862,1855
1076419,1871,1857,1857
1076429,1859,1854,1853
1076439,1852,1861,1857
1076449,1868,1855,1856
1076459,1867,1855,1856
1076469,1854,1850,1863
1076479,1867,1854,1862
1076489,1871,1862,1859
1076499,1876,1859,1860
1076509,1856,1857,1856
1076519,1871,1853,1859
1076529,1858,1855,1857
1076539,1859,1851,1857
1076549,1872,1861,1860
1076559,1867,1849,1854
1076569,1866,1855,1857
1076579,1871,1854,1853
1076589,1872,1871,1853
1076599,1870,1858,1853
1076609,1854,1857,1854
1076619,1871,1858,1850
1076629,1869,1847,1851
1076639,1885,1862,1851
1076649,1883,1847,1849
1076659,1869,1854,1846
1076669,1895,1856,1850
1076679,1876,1847,1851
1076689,1859,1859,1847
1076699,1865,1856,1847
1076709,1859,1853,1846
1076719,1865,1859,1846
1076729,1846,1856,1849
1076739,1863,1867,1847
1076749,1869,1859,1845
1076759,1870,1857,1847
1076769,1868,1859,1847
1076779,1868,1853,1846
1076789,1871,1857,1848
1076799,1866,1858,1849
1076809,1867,1854,1847
1076819,1867,1854,1849
1076829,1863,1855,1841
1076839,1872,1859,1851
1076849,1867,1859,1851
1076859,1870,1855,1846
1076869,1863,1856,1843
1076879,1868,1845,1840
1076889,1872,1855,1849
1076899,1870,1858,1851
1076909,1871,1856,1845
1076919,1863,1858,1847
1076929,1857,1845,1839
1076939,1865,1862,1847
1076949,1865,1866,1847
1076959,1871,1849,1842
1076969,1867,1856,1847
1076979,1863,1846,1841
1076989,1871,1857,1840
1076999,1869,1858,1847
1077009,1867,1849,1847
1077019,1871,1859,1847
1077029,1857,1854,1846
1077039,1861,1858,1847
1077049,1867,1857,1846
1077059,1862,1853,1843
1077069,1870,1856,1845
1077079,1859,1850,1843
1077089,1865,1859,1845
1077099,1874,1862,1845
1077109,1867,1856,1847
1077119,1866,1857,1849
1077129,1866,1854,1845
1077139,1862,1859,1849
1077149,1868,1861,1851
1077159,1862,1855,1843
1077169,1869,1857,1845
1077179,1859,1850,1843
1077189,1866,1854,1845
1077199,1869,1856,1847
1077209,1867,1851,1845
1077219,1866,1858,1846
1077229,1863,1847,1841
1077239,1870,1853,1842
1077249,1866,1853,1848
1077259,1862,1854,1850
1077269,1869,1856,1856
1077279,1865,1849,1850
1077289,1868,1854,1858
1077299,1867,1866,1872
1077309,1866,1857,1872
1077319,1867,1861,1879
1077329,1857,1855,1890
1077339,1861,1856,1895
1077349,1866,1853,1899
1077359,1870,1855,1897
1077369,1870,1857,1895
1077379,1868,1852,1892
1077389,1872,1853,1898
1077399,1877,1856,1890
1077409,1872,1856,1889
1077419,1872,1857,1887
1077429,1869,1855,1883
1077439,1866,1852,1878
1077449,1867,1862,1882
1077459,1866,1857,1879
1077469,1871,1856,1878
1077479,1861,1847,1874
1077489,1869,1857,1871
1077499,1875,1855,1866
1077509,1870,1856,1871
1077519,1866,1857,1870
1077529,1867,1847,1862
1077539,1867,1845,1861
1077549,1871,1853,1856
1077559,1863,1854,1854
1077569,1872,1867,1862
1077579,1867,1853,1856
1077589,1866,1856,1856
1077599,1867,1858,1855
1077609,1863,1856,1855
1077619,1874,1867,1856
1077629,1863,1859,1858
1077639,1862,1855,1855
1077649,1870,1856,1854
1077659,1869,1849,1851
1077669,1872,1861,1859
1077679,1863,1857,1857
1077689,1865,1856,1855
1077699,1871,1857,1856
1077709,1868,1857,1854
1077719,1872,1862,1853
1077729,1865,1858,1854
1077739,1869,1845,1850
1077749,1872,1855,1853
1077759,1869,1853,1851
1077769,1872,1859,1853
1077779,1859,1857,1850
1077789,1867,1856,1847
1077799,1867,1857,1854
1077809,1862,1859,1850
1077819,1867,1863,1853
1077829,1870,1859,1847
1077839,1866,1847,1846
1077849,1865,1856,1847
1077859,1863,1850,1847
1077869,1866,1856,1850
1077879,1868,1857,1850
1077889,1863,1851,1845
1077899,1871,1857,1844
1077909,1868,1860,1846
1077919,1865,1870,1853
1077929,1869,1861,1847
1077939,1872,1860,1853
1077949,1870,1856,1850
1077959,1871,1857,1851
1077969,1873,1855,1848
1077979,1870,1857,1847
1077989,1869,1852,1844
1077999,1871,1853,1850
1078009,1862,1855,1850
1078019,1868,1865,1845
1078029,1867,1865,1847
1078039,1859,1857,1847
1078049,1870,1860,1849
1078059,1865,1852,1844
1078069,1869,1856,1852
1078079,1865,1859,1849
1078089,1867,1846,1843
1078099,1870,1856,1846
1078109,1867,1856,1849
1078119,1867,1861,1854
1078129,1867,1862,1844
1078139,1863,1858,1846
1078149,1868,1857,1843
1078159,1866,1854,1842
1078169,1872,1855,1845
1078179,1870,1859,1851
1078189,1863,1855,1843
1078199,1866,1854,1849
1078209,1871,1838,1849
1078219,1872,1855,1847
1078229,1870,1867,1846
1078239,1864,1857,1847
1078249,1867,1858,1844
1078259,1855,1842,1842
1078269,1872,1845,1848
1078279,1872,1861,1847
1078289,1869,1851,1847
1078299,1866,1854,1851
1078309,1861,1844,1846
1078319,1861,1853,1847
1078329,1865,1866,1854
1078339,1861,1854,1850
1078349,1867,1856,1853
1078359,1863,1847,1849
1078369,1869,1851,1853
1078379,1869,1858,1857
1078389,1866,1852,1862
1078399,1866,1857,1867
1078409,1863,1854,1874
1078419,1864,1861,1883
1078429,1867,1861,1887
1078439,1861,1858,1888
1078449,1871,1858,1894
1078459,1867,1846,1891
1078469,1868,1856,1898
1078479,1872,1854,1896
1078489,1872,1855,1891
1078499,1872,1857,1889
1078509,1865,1847,1879
1078519,1867,1851,1886
1078529,1870,1851,1881
1078539,1863,1855,1877
1078549,1862,1858,1875
1078559,1861,1847,1867
1078569,1868,1850,1871
1078579,1872,1858,1871
1078589,1868,1856,1871
1078599,1871,1858,1870
1078609,1861,1849,1867
1078619,1863,1849,1861
1078629,1866,1861,1861
1078639,1861,1852,1859
1078649,1862,1857,1858
1078659,1863,1846,1851
1078669,1863,1851,1853
1078679,1867,1857,1853
1078689,1867,1856,1850
1078699,1863,1851,1853
1078709,1866,1846,1853
1078719,1867,1858,1854
1078729,1866,1859,1849
1078739,1860,1854,1855
1078749,1863,1858,1857
1078759,1865,1855,1856
1078769,1861,1857,1857
1078779,1869,1857,1853
1078789,1862,1851,1856
1078799,1870,1859,1854
1078809,1870,1847,1849
1078819,1867,1845,1855
1078829,1870,1859,1857
1078839,1863,1855,1847
1078849,1865,1870,1857
1078859,1861,1851,1853
1078869,1862,1855,1851
1078879,1867,1856,1849
1078889,1865,1857,1845
1078899,1874,1867,1852
1078909,1870,1858,1849
1078919,1871,1846,1845
1078929,1869,1858,1846
1078939,1866,1856,1853
1078949,1870,1861,1846
1078959,1863,1856,1850
1078969,1858,1854,1845
1078979,1865,1863,1853
1078989,1867,1856,1847
1078999,1870,1865,1850
1079009,1866,1859,1850
1079019,1869,1856,1851
1079029,1872,1853,1847
1079039,1869,1853,1847
1079049,1871,1855,1851
1079059,1872,1855,1850
1079069,1861,1856,1845
1079079,1867,1853,1846
1079089,1865,1853,1847
1079099,1872,1867,1850
1079109,1867,1856,1846
1079119,1869,1855,1847
1079129,1870,1863,1847
1079139,1867,1855,1840
1079149,1866,1861,1847
1079159,1869,1859,1850
1079169,1862,1847,1851
1079179,1869,1856,1851
1079189,1863,1855,1845
1079199,1870,1861,1848
1079209,1868,1865,1850
1079219,1866,1860,1842
1079229,1870,1864,1850
1079239,1869,1857,1847
1079249,1865,1861,1853
1079259,1872,1862,1847
1079269,1868,1853,1850
1079279,1870,1853,1852
1079289,1866,1854,1847
1079299,1865,1862,1849
1079309,1870,1860,1850
1079319,1860,1854,1852
1079329,1869,1862,1851
1079339,1866,1856,1850
1079349,1871,1859,1851
1079359,1871,1853,1849
1079369,1863,1853,1846
1079379,1869,1855,1850
1079389,1867,1851,1842
1079399,1867,1861,1853
1079409,1866,1853,1849
1079419,1867,1853,1847
1079429,1863,1861,1846
1079439,1862,1856,1847
1079449,1867,1861,1845
1079459,1867,1856,1851
1079469,1863,1854,1847
1079479,1867,1853,1850
1079489,1862,1850,1843
1079499,1870,1860,1850
1079509,1865,1863,1857
1079519,1860,1856,1860
1079529,1867,1856,1865
1079539,1865,1840,1866
1079549,1869,1853,1875
1079559,1871,1861,1882
1079569,1863,1859,1889
1079579,1869,1856,1893
1079589,1861,1849,1890
1079599,1871,1851,1894
1079609,1874,1864,1901
1079619,1861,1856,1894
1079629,1867,1856,1894
1079639,1861,1852,1889
1079649,1869,1857,1882
1079659,1872,1858,1885
1079669,1863,1855,1878
1079679,1870,1856,1878
1079689,1861,1847,1872
1079699,1872,1852,1872
1079709,1872,1856,1872
1079719,1870,1857,1871
1079729,1869,1855,1871
1079739,1863,1847,1871
1079749,1867,1855,1869
1079759,1872,1853,1859
1079769,1863,1854,1857
1079779,1872,1858,1856
1079789,1868,1850,1855
1079799,1865,1850,1853
1079809,1869,1859,1855
1079819,1865,1853,1851
1079829,1868,1855,1855
1079839,1869,1851,1854
1079849,1867,1861,1852
1079859,1866,1856,1856
1079869,1859,1856,1856
1079879,1868,1855,1852
1079889,1861,1842,1853
1079899,1862,1852,1853
1079909,1868,1856,1856
1079919,1863,1847,1855
1079929,1867,1856,1855
1079939,1861,1854,1854
1079949,1867,1850,1855
1079959,1869,1861,1858
1079969,1865,1856,1850
1079979,1865,1856,1851
1079989,1861,1847,1843
1079999,1863,1850,1849
1080009,1871,1855,1854
1080019,1865,1854,1849
1080029,1867,1858,1853
1080039,1861,1851,1850
1080049,1862,1859,1851
1080059,1867,1856,1853
1080069,1865,1856,1849
1080079,1866,1855,1851
1080089,1868,1855,1846
1080099,1862,1855,1846
1080109,1865,1853,1847
1080119,1867,1846,1850
1080129,1867,1859,1853
1080139,1867,1852,1850
1080149,1869,1853,1847
1080159,1866,1852,1847
1080169,1862,1855,1855
1080179,1866,1856,1857
1080189,1863,1850,1852
1080199,1860,1849,1846
1080209,1871,1854,1854
1080219,1867,1853,1851
1080229,1872,1867,1855
1080239,1863,1856,1851
1080249,1856,1856,1851
1080259,1869,1856,1850
1080269,1865,1856,1850
1080279,1871,1863,1854
1080289,1863,1855,1849
1080299,1869,1853,1845
1080309,1872,1858,1852
1080319,1867,1856,1852
1080329,1875,1859,1847
1080339,1872,1856,1853
1080349,1869,1847,1843
1080359,1872,1858,1854
1080369,1862,1856,1853
1080379,1867,1855,1850
1080389,1867,1856,1850
1080399,1861,1852,1850
1080409,1869,1858,1851
1080419,1868,1856,1847
1080429,1872,1856,1854
1080439,1870,1856,1854
1080449,1865,1855,1852
1080459,1870,1856,1852
1080469,1870,1856,1852
1080479,1867,1856,1853
1080489,1861,1862,1852
1080499,1859,1859,1850
1080509,1866,1856,1854
1080519,1869,1856,1853
1080529,1872,1867,1854
1080539,1863,1863,1853
1080549,1867,1847,1851
1080559,1871,1859,1849
1080569,1864,1851,1853
1080579,1867,1857,1866
1080589,1865,1856,1864
1080599,1861,1850,1863
1080609,1870,1861,1869
1080619,1867,1863,1875
1080629,1870,1865,1884
1080639,1871,1860,1892
1080649,1867,1851,1893
1080659,1871,1857,1894
1080669,1872,1854,1895
1080679,1873,1859,1895
1080689,1869,1853,1898
1080699,1867,1854,1891
1080709,1870,1855,1894
1080719,1872,1856,1889
1080729,1873,1861,1887
1080739,1872,1859,1879
1080749,1869,1853,1877
1080759,1872,1857,1878
1080769,1870,1851,1876
1080779,1870,1855,1874
1080789,1869,1857,1877
1080799,1868,1845,1872
1080809,1869,1853,1870
1080819,1867,1855,1863
1080829,1869,1855,1861
1080839,1865,1866,1863
1080849,1864,1853,1854
1080859,1869,1858,1855
1080869,1863,1841,1847
1080879,1866,1859,1855
1080889,1864,1867,1857
1080899,1863,1849,1854
1080909,1869,1857,1858
1080919,1866,1841,1852
1080929,1870,1850,1853
1080939,1866,1862,1860
1080949,1863,1856,1862
1080959,1867,1857,1859
1080969,1856,1853,1853
1080979,1858,1856,1857
1080989,1866,1854,1857
1080999,1866,1855,1856
1081009,1867,1854,1856
1081019,1862,1853,1855
1081029,1866,1854,1852
1081039,1871,1857,1853
1081049,1865,1855,1854
1081059,1869,1858,1853
1081069,1863,1850,1849
1081079,1863,1853,1847
1081089,1869,1859,1853
1081099,1868,1851,1843
1081109,1871,1854,1845
1081119,1863,1854,1849
1081129,1865,1851,1847
1081139,1870,1857,1849
1081149,1869,1849,1849
1081159,1870,1865,1849
1081169,1868,1856,1849
1081179,1869,1857,1846
1081189,1869,1859,1851
1081199,1866,1851,1847
1081209,1865,1855,1849
1081219,1859,1854,1840
1081229,1861,1850,1843
1081239,1867,1859,1852
1081249,1866,1855,1853
1081259,1864,1855,1851
1081269,1863,1854,1853
1081279,1863,1851,1854
1081289,1867,1855,1851
1081299,1869,1853,1843
1081309,1865,1854,1850
1081319,1858,1845,1845
1081329,1865,1851,1850
1081339,1872,1860,1852
1081349,1866,1857,1846
1081359,1867,1858,1847
1081369,1867,1849,1845
1081379,1863,1862,1846
1081389,1867,1859,1854
1081399,1867,1854,1852
1081409,1872,1855,1846
1081419,1863,1846,1845
1081429,1865,1853,1845
1081439,1869,1855,1846
1081449,1862,1856,1850
1081459,1865,1859,1854
1081469,1857,1855,1846
1081479,1863,1855,1849
1081489,1865,1861,1855
1081499,1863,1855,1845
1081509,1869,1854,1854
1081519,1868,1857,1849
1081529,1866,1847,1849
1081539,1866,1862,1849
1081549,1867,1853,1853
1081559,1869,1869,1854
1081569,1863,1855,1851
1081579,1859,1857,1849
1081589,1877,1861,1856
1081599,1865,1855,1851
1081609,1872,1863,1853
1081619,1871,1847,1853
1081629,1866,1849,1846
1081639,1871,1859,1845
1081649,1870,1854,1847
1081659,1872,1861,1856
1081669,1867,1856,1853
1081679,1862,1850,1849
1081689,1868,1859,1857
1081699,1862,1853,1854
1081709,1870,1866,1863
1081719,1869,1867,1862
1081729,1871,1847,1871
1081739,1872,1857,1875
1081749,1866,1855,1887
1081759,1871,1857,1892
1081769,1869,1854,1898
1081779,1863,1851,1901
1081789,1865,1861,1901
1081799,1863,1857,1899
1081809,1867,1863,1902
1081819,1869,1865,1898
1081829,1871,1855,1889
1081839,1873,1857,1893
1081849,1872,1851,1889
1081859,1872,1865,1889
1081869,1872,1854,1886
1081879,1867,1853,1883
1081889,1870,1856,1883
1081899,1869,1859,1879
1081909,1872,1869,1875
1081919,1872,1858,1874
1081929,1870,1858,1872
1081939,1867,1858,1872
1081949,1868,1855,1866
1081959,1872,1863,1869
1081969,1867,1857,1860
1081979,1862,1861,1858
1081989,1866,1854,1856
1081999,1863,1853,1859
1082009,1869,1865,1858
1082019,1863,1854,1855
1082029,1861,1850,1851
1082039,1863,1857,1856
1082049,1867,1858,1856
1082059,1870,1856,1855
1082069,1862,1855,1857
1082079,1863,1852,1858
1082089,1867,1857,1858
1082099,1863,1853,1859
1082109,1867,1861,1860
1082119,1865,1854,1856
1082129,1863,1850,1854
1082139,1866,1858,1856
1082149,1869,1857,1854
1082159,1867,1859,1856
1082169,1868,1857,1855
1082179,1872,1850,1855
1082189,1870,1858,1856
1082199,1859,1846,1849
1082209,1869,1859,1849
1082219,1872,1860,1851
1082229,1869,1856,1840
1082239,1869,1856,1852
1082249,1864,1840,1840
1082259,1871,1855,1845
1082269,1872,1863,1853
1082279,1866,1862,1841
1082289,1869,1855,1851
1082299,1853,1852,1854
1082309,1862,1853,1853
1082319,1863,1859,1849
1082329,1866,1839,1846
1082339,1863,1847,1866
1082349,1864,1853,1829
1082359,1870,1865,1854
1082369,1862,1861,1854
1082379,1861,1856,1844
1082389,1867,1862,1843
1082399,1862,1835,1854
1082409,1866,1849,1845
1082419,1869,1863,1854
1082429,1867,1854,1847
1082439,1868,1856,1841
1082449,1863,1840,1843
1082459,1863,1854,1839
1082469,1870,1872,1845
1082479,1868,1857,1845
1082489,1866,1855,1866
1082499,1861,1847,1840
1082509,1870,1845,1847
1082519,1862,1842,1840
1082529,1865,1843,1843
1082539,1867,1849,1839
1082549,1866,1846,1849
1082559,1866,1835,1843
1082569,1868,1871,1847
1082579,1867,1843,1858
1082589,1870,1872,1853
1082599,1861,1849,1842
1082609,1865,1852,1841
1082619,1870,1859,1849
1082629,1870,1840,1840
1082639,1872,1855,1850
1082649,1862,1846,1840
1082659,1865,1858,1850
1082669,1869,1856,1861
1082679,1866,1864,1851
1082689,1866,1856,1846
1082699,1863,1855,1847
1082709,1866,1855,1852
1082719,1866,1854,1850
1082729,1866,1853,1842
1082739,1869,1850,1850
1082749,1864,1853,1851
1082759,1863,1855,1853
1082769,1867,1861,1856
1082779,1859,1856,1853
1082789,1868,1856,1853
1082799,1861,1858,1837
1082809,1863,1854,1839
1082819,1872,1871,1857
1082829,1868,1850,1845
1082839,1872,1851,1840
1082849,1867,1843,1844
1082859,1863,1843,1847
1082869,1867,1869,1853
1082879,1863,1859,1851
1082889,1863,1868,1867
1082899,1865,1854,1858
1082909,1862,1852,1870
1082919,1873,1863,1875
1082929,1871,1856,1875
1082939,1872,1863,1883
1082949,1869,1853,1891
1082959,1867,1845,1891
1082969,1872,1853,1899
1082979,1868,1855,1897
1082989,1871,1861,1904
1082999,1867,1861,1898
1083009,1863,1855,1889
1083019,1872,1858,1890
1083029,1866,1850,1887
1083039,1872,1861,1882
1083049,1872,1853,1883
1083059,1872,1849,1878
1083069,1871,1853,1875
1083079,1872,1855,1877
1083089,1867,1858,1872
1083099,1867,1862,1873
1083109,1858,1859,1867
1083119,1867,1862,1867
1083129,1866,1858,1866
1083139,1902,1854,1866
1083149,1872,1860,1865
1083159,1862,1861,1860
1083169,1872,1856,1858
1083179,1866,1855,1856
1083189,1871,1863,1866
1083199,1856,1858,1855
1083209,1856,1855,1858
1083219,1867,1858,1854
1083229,1861,1856,1858
1083239,1868,1861,1859
1083249,1850,1857,1855
1083259,1867,1850,1857
1083269,1858,1862,1856
1083279,1863,1853,1856
1083289,1872,1858,1857
1083299,1869,1858,1857
1083309,1863,1849,1858
1083319,1869,1859,1858
1083329,1877,1855,1856
1083339,1869,1863,1854
1083349,1845,1856,1855
1083359,1872,1860,1851
1083369,1871,1860,1853
1083379,1863,1855,1853
1083389,1872,1854,1854
1083399,1874,1856,1853
1083409,1881,1853,1847
1083419,1872,1857,1851
1083429,1869,1852,1850
1083439,1871,1859,1851
1083449,1871,1863,1849
1083459,1853,1856,1849
1083469,1856,1862,1847
1083479,1878,1855,1849
1083489,1870,1856,1851
1083499,1899,1856,1855
1083509,1870,1846,1847
1083519,1872,1863,1849
1083529,1868,1854,1849
1083539,1859,1855,1853
1083549,1874,1858,1856
1083559,1855,1859,1845
1083569,1876,1858,1852
1083579,1862,1843,1842
1083589,1870,1857,1842
1083599,1871,1857,1852
1083609,1863,1854,1847
1083619,1869,1856,1854
1083629,1857,1849,1846
1083639,1863,1855,1845
1083649,1869,1856,1851
1083659,1859,1850,1847
1083669,1874,1855,1851
1083679,1856,1846,1847
1083689,1867,1853,1850
1083699,1870,1861,1851
1083709,1872,1849,1850
1083719,1870,1856,1855
1083729,1861,1851,1853
1083739,1863,1850,1848
1083749,1842,1858,1846
1083759,1863,1851,1847
1083769,1866,1857,1845
1083779,1858,1847,1850
1083789,1871,1861,1846
1083799,1869,1859,1850
1083809,1868,1851,1846
1083819,1867,1855,1849
1083829,1867,1847,1849
1083839,1859,1855,1851
1083849,1871,1862,1850
1083859,1867,1852,1847
1083869,1866,1857,1851
1083879,1869,1847,1847
1083889,1870,1851,1847
1083899,1869,1858,1847
1083909,1857,1855,1849
1083919,1868,1858,1847
1083929,1867,1842,1850
1083939,1860,1846,1853
1083949,1863,1856,1856
1083959,1866,1855,1855
1083969,1870,1856,1856
1083979,1859,1854,1861
1083989,1866,1853,1869
1083999,1871,1865,1872
1084009,1868,1851,1878
1084019,1863,1855,1884
1084029,1867,1850,1889
1084039,1861,1847,1894
1084049,1871,1856,1895
1084059,1867,1851,1898
1084069,1867,1856,1895
1084079,1866,1859,1895
1084089,1871,1856,1891
1084099,1872,1857,1893
1084109,1871,1853,1889
1084119,1872,1857,1886
1084129,1871,1845,1881
1084139,1869,1855,1881
1084149,1872,1855,1873
1084159,1867,1854,1875
1084169,1861,1856,1878
1084179,1859,1856,1873
1084189,1870,1850,1865
1084199,1865,1858,1871
1084209,1862,1857,1862
1084219,1868,1871,1867
1084229,1870,1855,1863
1084239,1869,1850,1854
1084249,1868,1857,1854
1084259,1867,1847,1851
1084269,1873,1859,1855
1084279,1862,1854,1851
1084289,1861,1853,1855
1084299,1866,1861,1856
1084309,1867,1856,1854
1084319,1873,1858,1857
1084329,1867,1861,1859
1084339,1863,1849,1856
1084349,1870,1858,1855
1084359,1865,1850,1857
1084369,1872,1862,1857
1084379,1870,1855,1854
1084389,1866,1851,1855
1084399,1863,1859,1859
1084409,1863,1855,1855
1084419,1872,1860,1853
1084429,1867,1856,1855
1084439,1859,1850,1851
1084449,1863,1855,1847
1084459,1871,1853,1847
1084469,1872,1856,1854
1084479,1867,1851,1845
1084489,1865,1847,1846
1084499,1868,1856,1852
1084509,1865,1856,1849
1084519,1872,1861,1854
1084529,1869,1866,1845
1084539,1865,1849,1851
1084549,1869,1855,1850
1084559,1870,1855,1846
1084569,1872,1867,1850
1084579,1871,1860,1844
1084589,1867,1853,1846
1084599,1868,1858,1849
1084609,1862,1855,1849
1084619,1872,1865,1852
1084629,1862,1857,1855
1084639,1860,1857,1847
1084649,1869,1855,1847
1084659,1867,1855,1856
1084669,1872,1865,1847
1084679,1869,1861,1847
1084689,1869,1851,1846
1084699,1871,1857,1845
1084709,1865,1847,1847
1084719,1869,1856,1850
1084729,1870,1857,1849
1084739,1861,1855,1842
1084749,1872,1857,1845
1084759,1866,1856,1849
1084769,1872,1863,1850
1084779,1871,1856,1851
1084789,1868,1856,1845
1084799,1869,1860,1847
1084809,1869,1855,1846
1084819,1872,1860,1847
1084829,1866,1861,1847
1084839,1862,1850,1843
1084849,1866,1861,1852
1084859,1866,1849,1841
1084869,1870,1855,1845
1084879,1869,1859,1852
1084889,1867,1856,1843
1084899,1869,1856,1851
1084909,1858,1846,1843
1084919,1867,1855,1850
1084929,1867,1855,1853
1084939,1863,1851,1849
1084949,1866,1854,1851
1084959,1861,1847,1844
1084969,1870,1855,1847
1084979,1873,1857,1850
1084989,1865,1855,1847
1084999,1867,1855,1846
1085009,1867,1855,1853
1085019,1866,1855,1852
1085029,1869,1857,1853
1085039,1861,1856,1855
1085049,1863,1855,1855
1085059,1865,1851,1845
1085069,1866,1855,1847
1085079,1869,1857,1847
1085089,1866,1854,1851
1085099,1869,1861,1852
1085109,1866,1850,1847
1085119,1868,1851,1849
1085129,1867,1855,1851
1085139,1865,1856,1850
1085149,1861,1855,1856
1085159,1862,1848,1854
1085169,1865,1858,1861
1085179,1871,1855,1865
1085189,1862,1855,1872
1085199,1867,1859,1875
1085209,1866,1852,1875
1085219,1863,1847,1890
1085229,1872,1854,1894
1085239,1865,1857,1898
1085249,1869,1857,1897
1085259,1867,1851,1900
1085269,1870,1851,1901
1085279,1871,1858,1901
1085289,1870,1855,1888
1085299,1872,1856,1885
1085309,1869,1847,1883
1085319,1869,1854,1883
1085329,1872,1856,1882
1085339,1871,1851,1874
1085349,1870,1855,1875
1085359,1863,1846,1872
1085369,1865,1849,1870
1085379,1870,1855,1870
1085389,1862,1856,1866
1085399,1861,1857,1866
1085409,1862,1854,1860
1085419,1867,1847,1862
1085429,1866,1850,1859
1085439,1863,1853,1855
1085449,1863,1858,1857
1085459,1859,1854,1851
1085469,1865,1859,1851
1085479,1865,1857,1857
1085489,1866,1851,1852
1085499,1866,1860,1856
1085509,1869,1849,1855
1085519,1867,1844,1851
1085529,1867,1862,1856
1085539,1865,1852,1858
1085549,1872,1867,1860
1085559,1860,1847,1857
1085569,1861,1855,1854
1085579,1870,1859,1857
1085589,1861,1853,1857
1085599,1872,1858,1855
1085609,1870,1856,1851
1085619,1865,1861,1854
1085629,1869,1865,1856
1085639,1863,1852,1856
1085649,1872,1863,1853
1085659,1868,1852,1853
1085669,1866,1850,1849
1085679,1868,1857,1851
1085689,1863,1859,1850
1085699,1872,1863,1851
1085709,1867,1859,1845
1085719,1865,1854,1847
1085729,1866,1855,1852
1085739,1863,1856,1845
1085749,1868,1859,1855
1085759,1871,1852,1849
1085769,1865,1850,1846
1085779,1869,1854,1849
1085789,1867,1854,1851
1085799,1872,1856,1851
1085809,1871,1862,1847
1085819,1862,1854,1846
1085829,1863,1859,1852
1085839,1864,1856,1851
1085849,1867,1857,1853
1085859,1871,1852,1849
1085869,1869,1844,1847
1085879,1867,1859,1847
1085889,1866,1856,1847
1085899,1871,1860,1846
1085909,1869,1862,1849
1085919,1862,1853,1851
1085929,1867,1858,1853
1085939,1867,1860,1849
1085949,1870,1861,1851
1085959,1869,1863,1847
1085969,1866,1849,1847
1085979,1866,1857,1847
1085989,1868,1855,1847
1085999,1872,1860,1847
1086009,1872,1859,1852
1086019,1859,1847,1847
1086029,1860,1862,1852
1086039,1869,1853,1847
1086049,1868,1861,1851
1086059,1865,1857,1846
1086069,1869,1847,1847
1086079,1867,1857,1852
1086089,1862,1855,1851
1086099,1870,1860,1847
1086109,1871,1855,1850
1086119,1867,1857,1852
1086129,1872,1858,1854
1086139,1865,1856,1843
1086149,1865,1857,1850
1086159,1867,1859,1850
1086169,1867,1851,1850
1086179,1866,1857,1849
1086189,1864,1842,1843
1086199,1869,1856,1851
1086209,1872,1859,1853
1086219,1863,1855,1849
1086229,1866,1858,1855
1086239,1859,1853,1847
1086249,1863,1857,1847
1086259,1867,1860,1854
1086269,1862,1855,1849
1086279,1865,1858,1849
1086289,1859,1853,1842
1086299,1867,1857,1846
1086309,1872,1856,1851
1086319,1865,1847,1854
1086329,1869,1856,1857
1086339,1857,1847,1865
1086349,1863,1851,1867
1086359,1867,1857,1875
1086369,1861,1857,1878
1086379,1870,1857,1883
1086389,1867,1847,1884
1086399,1869,1855,1887
1086409,1872,1857,1895
1086419,1871,1857,1892
1086429,1872,1857,1894
1086439,1870,1849,1889
1086449,1869,1855,1893
1086459,1869,1857,1885
1086469,1866,1851,1882
1086479,1867,1856,1879
1086489,1869,1852,1872
1086499,1871,1853,1872
1086509,1872,1856,1871
1086519,1867,1854,1871
1086529,1866,1855,1867
1086539,1861,1851,1863
1086549,1866,1855,1861
1086559,1870,1857,1865
1086569,1866,1854,1861
1086579,1868,1855,1861
1086589,1860,1852,1854
1086599,1862,1854,1855
1086609,1869,1859,1857
1086619,1868,1854,1853
1086629,1869,1857,1856
1086639,1857,1845,1849
1086649,1861,1856,1855
1086659,1869,1856,1859
1086669,1867,1855,1857
1086679,1862,1856,1858
1086689,1857,1854,1862
1086699,1868,1859,1856
1086709,1871,1855,1853
1086719,1868,1850,1858
1086729,1867,1857,1858
1086739,1861,1851,1854
1086749,1870,1853,1854
1086759,1863,1851,1853
1086769,1865,1853,1850
1086779,1871,1853,1858
1086789,1870,1850,1851
1086799,1866,1853,1851
1086809,1869,1855,1858
1086819,1863,1850,1850
1086829,1866,1856,1857
1086839,1863,1847,1850
1086849,1863,1847,1848
1086859,1867,1868,1853
1086869,1863,1855,1848
1086879,1870,1863,1855
1086889,1863,1850,1846
1086899,1862,1857,1850
1086909,1863,1869,1854
1086919,1866,1855,1855
1086929,1872,1865,1849
1086939,1869,1856,1854
1086949,1867,1853,1850
1086959,1872,1855,1854
1086969,1863,1856,1852
1086979,1870,1859,1849
1086989,1868,1853,1847
1086999,1863,1853,1847
1087009,1868,1861,1850
1087019,1870,1855,1849
1087029,1868,1867,1851
1087039,1868,1855,1853
1087049,1866,1850,1850
1087059,1867,1855,1849
1087069,1867,1849,1846
1087079,1869,1855,1853
1087089,1868,1851,1847
1087099,1863,1849,1847
1087109,1863,1856,1845
1087119,1861,1857,1847
1087129,1870,1861,1855
1087139,1868,1869,1855
1087149,1866,1853,1850
1087159,1867,1857,1853
1087169,1862,1855,1852
1087179,1870,1857,1853
1087189,1869,1855,1847
1087199,1869,1849,1851
1087209,1867,1856,1850
1087219,1862,1860,1847
1087229,1872,1863,1850
1087239,1869,1859,1849
1087249,1867,1861,1852
1087259,1869,1862,1848
1087269,1866,1851,1850
1087279,1874,1856,1853
1087289,1867,1855,1852
1087299,1862,1851,1855
1087309,1870,1857,1849
1087319,1862,1858,1853
1087329,1867,1863,1851
1087339,1868,1866,1853
1087349,1866,1855,1847
1087359,1867,1859,1853
1087369,1867,1859,1849
1087379,1869,1864,1856
1087389,1867,1859,1851
1087399,1866,1845,1843
1087409,1871,1853,1855
1087419,1866,1854,1849
1087429,1863,1857,1853
1087439,1870,1861,1851
1087449,1871,1861,1851
1087459,1869,1854,1855
1087469,1863,1855,1845
1087479,1869,1856,1853
1087489,1867,1859,1857
1087499,1863,1854,1856
1087509,1870,1856,1860
1087519,1863,1850,1865
1087529,1864,1856,1872
1087539,1869,1866,1872
1087549,1870,1856,1883
1087559,1868,1860,1889
1087569,1862,1843,1891
1087579,1869,1863,1898
1087589,1872,1861,1901
1087599,1865,1851,1898
1087609,1872,1857,1903
1087619,1868,1847,1899
1087629,1872,1855,1894
1087639,1872,1861,1894
1087649,1869,1856,1886
1087659,1872,1859,1886
1087669,1867,1851,1882
1087679,1865,1856,1877
1087689,1870,1855,1879
1087699,1866,1850,1872
1087709,1872,1856,1872
1087719,1869,1853,1872
1087729,1863,1853,1872
1087739,1869,1854,1871
1087749,1869,1849,1866
1087759,1869,1855,1865
1087769,1863,1857,1859
1087779,1870,1851,1860
