timestamp_ms_device,ppg_finger1,ppg_finger2,ppg_finger3
1556046,1815,1808,1823
1556056,1840,1825,1826
1556066,1838,1813,1821
1556076,1808,1786,1802
1556086,1810,1798,1807
1556096,1813,1808,1807
1556106,1840,1815,1827
1556116,1831,1818,1819
1556126,1808,1791,1803
1556136,1808,1805,1806
1556146,1810,1810,1811
1556156,1840,1808,1821
1556166,1831,1819,1814
1556176,1808,1792,1791
1556186,1813,1798,1807
1556196,1817,1805,1808
1556206,1831,1809,1816
1556216,1829,1817,1812
1556226,1808,1788,1799
1556236,1810,1804,1804
1556246,1818,1807,1807
1556256,1829,1808,1820
1556266,1824,1819,1814
1556276,1805,1787,1799
1556286,1808,1794,1806
1556296,1814,1811,1808
1556306,1829,1814,1826
1556316,1833,1809,1810
1556326,1808,1787,1795
1556336,1812,1798,1808
1556346,1809,1817,1815
1556356,1837,1819,1826
1556366,1821,1808,1812
1556376,1801,1789,1807
1556386,1813,1797,1819
1556396,1811,1805,1808
1556406,1841,1819,1830
1556416,1823,1812,1812
1556426,1798,1785,1793
1556436,1808,1791,1807
1556446,1818,1808,1803
1556456,1841,1815,1826
1556466,1829,1811,1811
1556476,1805,1781,1792
1556486,1810,1799,1809
1556496,1819,1808,1809
1556506,1840,1815,1822
1556516,1826,1809,1808
1556526,1803,1787,1799
1556536,1810,1803,1810
1556546,1820,1814,1811
1556556,1856,1823,1839
1556566,1838,1822,1823
1556576,1811,1798,1822
1556586,1839,1819,1840
1556596,1850,1836,1840
1556606,1869,1840,1872
1556616,1855,1840,1855
1556626,1836,1810,1840
1556636,1844,1837,1855
1556646,1845,1838,1856
1556656,1870,1845,1869
1556666,1849,1839,1850
1556676,1819,1808,1829
1556686,1831,1822,1840
1556696,1835,1823,1838
1556706,1851,1831,1843
1556716,1835,1821,1819
1556726,1813,1793,1808
1556736,1818,1811,1815
1556746,1820,1812,1825
1556756,1839,1819,1827
1556766,1827,1808,1801
1556776,1793,1787,1795
1556786,1809,1808,1808
1556796,1821,1808,1818
1556806,1833,1809,1819
1556816,1814,1792,1792
1556826,1797,1793,1795
1556836,1818,1804,1806
1556846,1818,1811,1826
1556856,1837,1809,1821
1556866,1809,1791,1793
1556876,1806,1796,1798
1556886,1820,1807,1802
1556896,1834,1816,1823
1556906,1840,1815,1820
1556916,1808,1799,1795
1556926,1810,1795,1808
1556936,1815,1810,1808
1556946,1840,1821,1821
1556956,1834,1814,1818
1556966,1809,1786,1797
1556976,1810,1794,1806
1556986,1815,1810,1813
1556996,1838,1817,1818
1557006,1835,1818,1814
1557016,1808,1793,1798
1557026,1808,1793,1807
1557036,1808,1809,1811
1557046,1835,1810,1814
1557056,1834,1813,1808
1557066,1809,1797,1793
1557076,1807,1801,1797
1557086,1814,1807,1795
1557096,1824,1808,1811
1557106,1834,1808,1808
1557116,1803,1789,1787
1557126,1809,1795,1798
1557136,1811,1797,1801
1557146,1830,1809,1813
1557156,1823,1806,1807
1557166,1797,1785,1789
1557176,1801,1790,1796
1557186,1801,1802,1798
1557196,1825,1808,1817
1557206,1815,1805,1806
1557216,1787,1783,1786
1557226,1792,1792,1792
1557236,1808,1798,1795
1557246,1833,1813,1811
1557256,1819,1803,1795
1557266,1791,1786,1779
1557276,1797,1798,1799
1557286,1806,1806,1804
1557296,1835,1815,1819
1557306,1822,1813,1803
1557316,1788,1791,1789
1557326,1808,1792,1796
1557336,1817,1807,1802
1557346,1840,1824,1827
1557356,1822,1809,1807
1557366,1792,1787,1782
1557376,1808,1799,1805
1557386,1815,1811,1807
1557396,1851,1824,1834
1557406,1826,1813,1819
1557416,1807,1790,1803
1557426,1825,1810,1825
1557436,1838,1827,1829
1557446,1869,1840,1867
1557456,1855,1837,1845
1557466,1825,1818,1826
1557476,1841,1827,1859
1557486,1853,1835,1852
1557496,1869,1847,1871
1557507,1851,1835,1840
1557517,1832,1819,1831
1557527,1837,1823,1840
1557537,1851,1838,1851
1557547,1843,1827,1829
1557557,1811,1791,1805
1557567,1820,1806,1810
1557577,1818,1808,1808
1557587,1840,1831,1828
1557597,1825,1807,1807
1557607,1792,1785,1793
1557617,1808,1795,1798
1557627,1815,1801,1805
1557637,1827,1818,1824
1557647,1823,1802,1797
1557657,1797,1783,1777
1557667,1797,1798,1796
1557677,1808,1805,1807
1557687,1837,1817,1817
1557697,1820,1807,1808
1557707,1805,1789,1791
1557717,1810,1796,1805
1557727,1822,1808,1811
1557737,1843,1825,1823
1557747,1828,1809,1813
1557757,1808,1799,1798
1557767,1818,1808,1808
1557777,1816,1811,1815
1557787,1841,1827,1830
1557797,1827,1811,1814
1557807,1804,1806,1796
1557817,1814,1807,1807
1557827,1815,1810,1808
1557837,1840,1818,1826
1557847,1825,1807,1808
1557857,1797,1801,1791
1557867,1808,1797,1805
1557877,1814,1807,1797
1557887,1837,1817,1818
1557897,1812,1804,1806
1557907,1789,1790,1790
1557917,1810,1803,1802
1557927,1813,1810,1806
1557937,1837,1811,1819
1557947,1814,1804,1799
1557957,1802,1802,1787
1557967,1811,1808,1803
1557977,1815,1811,1808
1557987,1840,1819,1819
1557997,1822,1806,1789
1558007,1802,1802,1794
1558017,1819,1809,1807
1558027,1825,1815,1822
1558037,1840,1818,1823
1558047,1821,1797,1790
1558057,1802,1792,1797
1558067,1819,1808,1808
1558077,1830,1825,1827
1558087,1840,1817,1830
1558097,1811,1797,1795
1558107,1799,1796,1794
1558117,1822,1811,1808
1558127,1837,1828,1825
1558137,1846,1819,1819
1558147,1808,1792,1791
1558157,1808,1801,1798
1558167,1821,1824,1812
1558177,1845,1833,1838
1558187,1856,1831,1840
1558197,1819,1808,1818
1558207,1829,1826,1829
1558217,1847,1840,1844
1558227,1871,1854,1859
1558237,1862,1843,1857
1558247,1833,1818,1831
1558257,1839,1824,1838
1558267,1849,1836,1840
1558277,1869,1847,1856
1558287,1851,1839,1842
1558297,1823,1799,1805
1558307,1824,1810,1818
1558317,1829,1815,1824
1558327,1835,1827,1835
1558337,1840,1820,1815
1558347,1798,1790,1781
1558357,1805,1799,1791
1558367,1815,1803,1809
1558377,1825,1813,1826
1558387,1828,1808,1809
1558397,1792,1779,1779
1558407,1795,1789,1797
1558417,1808,1803,1802
1558427,1825,1819,1822
1558437,1823,1808,1806
1558447,1786,1782,1776
1558457,1802,1794,1798
1558467,1816,1808,1803
1558477,1837,1822,1834
1558487,1827,1808,1808
1558497,1795,1798,1786
1558507,1814,1806,1803
1558517,1828,1808,1810
1558527,1841,1825,1837
1558537,1838,1814,1815
1558547,1799,1796,1794
1558557,1815,1809,1808
1558567,1826,1808,1808
1558577,1840,1821,1828
1558587,1827,1813,1808
1558597,1804,1793,1791
1558607,1810,1805,1799
1558617,1819,1804,1803
1558627,1839,1818,1829
1558637,1823,1807,1808
1558647,1792,1801,1786
1558657,1811,1797,1805
1558667,1813,1805,1792
1558677,1839,1815,1823
1558687,1823,1808,1804
1558697,1793,1797,1783
1558707,1806,1808,1809
1558717,1813,1808,1818
1558727,1831,1819,1826
1558737,1822,1808,1807
1558747,1791,1795,1789
1558757,1808,1813,1810
1558767,1815,1811,1804
1558777,1838,1815,1823
1558787,1815,1808,1808
1558797,1783,1801,1786
1558807,1808,1808,1806
1558817,1819,1808,1803
1558827,1840,1821,1827
1558837,1821,1807,1799
1558847,1792,1798,1787
1558857,1810,1806,1808
1558867,1808,1809,1809
1558877,1840,1815,1821
1558887,1821,1803,1797
1558897,1790,1805,1791
1558907,1808,1804,1812
1558917,1817,1821,1823
1558927,1840,1821,1819
1558937,1807,1803,1797
1558947,1797,1799,1799
1558957,1824,1814,1820
1558967,1838,1828,1853
1558977,1850,1837,1849
1558987,1818,1815,1818
1558997,1825,1825,1840
1559007,1856,1840,1858
1559017,1874,1862,1874
1559027,1875,1853,1872
1559037,1840,1825,1847
1559047,1835,1840,1850
1559057,1857,1841,1862
1559067,1871,1860,1861
1559077,1863,1845,1859
1559087,1826,1815,1823
1559097,1815,1825,1822
1559107,1840,1823,1837
1559117,1859,1839,1833
1559127,1853,1825,1834
1559137,1807,1793,1792
1559147,1808,1813,1795
1559157,1822,1808,1819
1559167,1840,1822,1811
1559177,1830,1815,1814
1559187,1794,1787,1776
1559197,1807,1799,1793
1559207,1811,1807,1808
1559217,1821,1821,1810
1559227,1823,1811,1811
1559237,1791,1776,1776
1559247,1803,1799,1782
1559257,1811,1808,1810
1559267,1833,1826,1822
1559277,1834,1808,1813
1559287,1792,1791,1778
1559297,1798,1807,1793
1559307,1814,1808,1811
1559317,1840,1828,1831
1559327,1826,1808,1814
1559337,1791,1797,1790
1559347,1805,1803,1803
1559357,1819,1808,1815
1559367,1840,1830,1836
1559377,1827,1808,1811
1559387,1794,1797,1783
1559397,1808,1807,1802
1559407,1814,1804,1810
1559417,1840,1824,1825
1559427,1826,1809,1809
1559437,1792,1792,1782
1559447,1808,1807,1798
1559457,1808,1804,1809
1559467,1845,1830,1820
1559477,1814,1809,1810
1559487,1793,1795,1783
1559497,1811,1808,1810
1559507,1822,1805,1808
1559517,1840,1825,1822
1559527,1826,1814,1814
1559537,1795,1802,1787
1559547,1811,1808,1811
1559557,1824,1812,1808
1559567,1843,1823,1822
1559577,1821,1811,1811
1559587,1808,1805,1795
1559597,1818,1808,1808
1559607,1823,1810,1809
1559617,1843,1823,1826
1559627,1820,1808,1814
1559637,1808,1795,1797
1559647,1811,1812,1809
1559657,1809,1811,1808
1559667,1845,1824,1823
1559677,1832,1805,1798
1559687,1803,1803,1794
1559697,1809,1808,1818
1559707,1825,1819,1815
1559717,1847,1818,1825
1559727,1823,1811,1787
1559737,1791,1808,1795
1559747,1820,1808,1808
1559757,1817,1821,1819
1559767,1837,1814,1820
1559777,1818,1803,1790
1559787,1797,1808,1799
1559797,1824,1813,1822
1559807,1834,1837,1843
1559817,1859,1836,1845
1559827,1827,1810,1822
1559837,1824,1831,1825
1559847,1848,1838,1852
1559857,1869,1861,1873
1559867,1874,1845,1872
1559877,1825,1825,1828
1559887,1830,1834,1834
1559897,1842,1831,1853
1559907,1863,1847,1851
1559917,1855,1839,1853
1559927,1803,1813,1808
1559937,1813,1823,1815
1559947,1829,1812,1831
1559957,1846,1835,1829
1559967,1837,1823,1834
1559977,1798,1795,1791
1559987,1790,1812,1805
1559997,1818,1808,1821
1560007,1830,1824,1818
1560017,1830,1819,1815
1560027,1782,1786,1773
1560037,1790,1806,1789
1560047,1808,1805,1808
1560057,1818,1813,1811
1560067,1825,1815,1814
1560077,1783,1786,1776
1560087,1800,1805,1792
1560097,1810,1807,1808
1560107,1829,1823,1828
1560117,1829,1814,1809
1560127,1790,1787,1783
1560137,1801,1807,1798
1560147,1819,1808,1822
1560157,1834,1836,1834
1560167,1837,1819,1815
1560177,1792,1795,1786
1560187,1811,1808,1805
1560197,1818,1813,1814
1560207,1839,1829,1835
1560217,1840,1814,1814
1560227,1790,1795,1783
1560237,1808,1810,1799
1560247,1815,1808,1808
1560257,1842,1836,1827
1560267,1824,1812,1808
1560277,1786,1794,1779
1560287,1804,1805,1803
1560297,1810,1804,1805
1560307,1839,1823,1830
1560317,1825,1806,1810
1560327,1787,1798,1776
1560337,1808,1802,1802
1560347,1815,1808,1808
1560357,1840,1829,1824
1560367,1822,1811,1808
1560377,1783,1795,1779
1560387,1808,1808,1805
1560397,1812,1806,1808
1560407,1830,1821,1826
1560417,1825,1811,1811
1560427,1792,1804,1789
1560437,1809,1805,1806
1560447,1813,1805,1808
1560457,1837,1821,1824
1560467,1825,1811,1810
1560477,1793,1806,1789
1560487,1810,1807,1803
1560497,1813,1808,1798
1560507,1841,1823,1821
1560517,1825,1809,1799
1560527,1790,1807,1785
1560537,1819,1804,1808
1560547,1818,1814,1801
1560557,1840,1824,1820
1560567,1823,1809,1794
1560577,1790,1806,1785
1560587,1817,1807,1806
1560597,1808,1814,1809
1560607,1839,1822,1823
1560617,1819,1808,1788
1560627,1790,1808,1787
1560637,1818,1806,1808
1560647,1820,1825,1836
1560657,1851,1826,1839
1560667,1818,1805,1809
1560677,1807,1826,1822
1560687,1840,1828,1847
1560697,1845,1853,1867
1560707,1862,1851,1862
1560717,1825,1821,1826
1560727,1817,1831,1831
1560737,1846,1830,1844
1560747,1861,1857,1864
1560757,1861,1840,1843
1560767,1814,1810,1808
1560777,1807,1824,1823
1560787,1835,1823,1826
1560797,1850,1849,1837
1560807,1851,1821,1835
1560817,1791,1798,1792
1560827,1796,1808,1795
1560837,1827,1812,1809
1560847,1840,1825,1803
1560857,1831,1817,1810
1560867,1782,1783,1769
1560877,1786,1802,1786
1560887,1809,1808,1808
1560897,1827,1819,1807
1560907,1834,1809,1809
1560917,1787,1782,1774
1560927,1791,1807,1787
1560937,1818,1805,1811
1560947,1828,1822,1817
1560957,1831,1814,1819
1560967,1781,1787,1773
1560977,1801,1808,1792
1560987,1818,1808,1808
1560997,1827,1826,1823
1561007,1829,1817,1817
1561017,1787,1787,1775
1561027,1795,1808,1783
1561037,1818,1808,1806
1561047,1831,1831,1826
1561057,1827,1807,1799
1561067,1785,1791,1773
1561077,1786,1806,1789
1561087,1808,1802,1803
1561097,1830,1827,1815
1561107,1823,1805,1807
1561117,1779,1787,1775
1561127,1794,1805,1789
1561137,1815,1807,1804
1561147,1840,1824,1817
1561157,1824,1808,1807
1561167,1779,1792,1775
1561177,1798,1805,1786
1561187,1811,1806,1805
1561197,1837,1828,1821
1561207,1819,1807,1808
1561217,1782,1799,1775
1561227,1795,1802,1792
1561237,1808,1805,1809
1561247,1835,1825,1817
1561257,1822,1808,1808
1561267,1791,1796,1776
1561277,1807,1808,1804
1561287,1812,1803,1804
1561297,1831,1822,1811
1561307,1823,1811,1808
1561317,1788,1793,1777
1561327,1797,1807,1807
1561337,1815,1805,1804
1561347,1831,1821,1814
1561357,1814,1808,1807
1561367,1788,1797,1776
1561377,1805,1804,1802
1561387,1809,1792,1801
1561397,1830,1815,1815
1561407,1818,1808,1803
1561417,1781,1799,1779
1561427,1806,1804,1807
1561437,1811,1808,1808
1561447,1827,1818,1810
1561457,1823,1808,1788
1561467,1779,1805,1785
1561477,1814,1807,1808
1561487,1821,1815,1814
1561497,1848,1826,1827
1561507,1830,1809,1808
1561517,1807,1821,1808
1561527,1835,1831,1840
1561537,1841,1841,1855
1561547,1862,1840,1857
1561557,1830,1821,1822
1561567,1813,1829,1819
1561577,1843,1831,1846
1561587,1847,1851,1851
1561597,1859,1840,1840
1561607,1815,1810,1806
1561617,1807,1814,1810
1561627,1828,1821,1814
1561637,1840,1837,1830
1561647,1841,1818,1817
1561657,1791,1797,1785
1561667,1790,1805,1788
1561677,1809,1808,1802
1561687,1839,1822,1807
1561697,1830,1809,1807
1561707,1777,1789,1776
1561717,1789,1795,1781
1561727,1808,1807,1797
1561737,1829,1813,1795
1561747,1823,1806,1809
1561757,1781,1792,1765
1561767,1787,1809,1778
1561777,1808,1808,1802
1561787,1828,1819,1811
1561797,1834,1813,1813
1561807,1783,1792,1779
1561817,1791,1807,1787
1561827,1814,1808,1811
1561837,1826,1826,1818
1561847,1831,1815,1815
1561857,1778,1793,1775
1561867,1793,1808,1790
1561877,1817,1809,1806
1561887,1825,1826,1824
1561897,1825,1808,1809
1561907,1781,1794,1771
1561917,1791,1798,1785
1561927,1808,1808,1805
1561937,1829,1833,1822
1561947,1818,1808,1809
1561957,1781,1791,1778
1561967,1793,1808,1788
1561977,1808,1805,1808
1561987,1834,1831,1821
1561997,1823,1802,1808
1562007,1775,1794,1775
1562017,1793,1808,1786
1562027,1818,1806,1803
1562037,1838,1829,1821
1562047,1826,1808,1807
1562057,1790,1795,1776
1562067,1807,1807,1795
1562077,1821,1809,1808
1562087,1837,1828,1824
1562097,1826,1809,1808
1562107,1787,1795,1783
1562117,1807,1808,1802
1562127,1818,1809,1803
1562137,1840,1825,1821
1562147,1823,1807,1811
1562157,1792,1798,1783
1562167,1803,1802,1810
1562177,1811,1810,1808
1562187,1839,1822,1821
1562197,1824,1809,1809
1562207,1781,1802,1789
1562217,1808,1810,1809
1562227,1821,1809,1806
1562237,1839,1830,1830
1562247,1834,1819,1830
1562257,1796,1811,1805
1562267,1835,1822,1839
1562277,1841,1843,1835
1562287,1867,1843,1861
1562297,1847,1840,1847
1562307,1825,1829,1839
1562317,1847,1840,1855
1562327,1853,1840,1846
1562337,1869,1847,1862
1562347,1854,1827,1823
1562357,1813,1823,1823
1562367,1840,1831,1838
1562377,1834,1836,1846
1562387,1858,1840,1840
1562397,1827,1808,1808
1562407,1798,1814,1806
1562417,1826,1809,1817
1562427,1826,1827,1834
1562437,1839,1821,1826
1562447,1805,1790,1789
1562457,1785,1804,1792
1562467,1812,1805,1808
1562477,1824,1827,1825
1562487,1838,1809,1817
1562497,1794,1795,1777
1562507,1787,1804,1793
1562517,1809,1805,1808
1562527,1839,1827,1817
1562537,1837,1814,1815
1562547,1786,1796,1787
1562557,1791,1807,1799
1562567,1818,1808,1808
1562577,1845,1829,1809
1562587,1834,1813,1819
1562597,1794,1799,1784
1562607,1798,1808,1799
1562617,1825,1808,1809
1562627,1837,1824,1819
1562637,1836,1814,1827
1562647,1793,1798,1786
1562657,1797,1807,1791
1562667,1821,1808,1814
1562677,1833,1815,1813
1562687,1836,1808,1815
1562697,1787,1792,1776
1562707,1803,1805,1791
1562717,1815,1806,1808
1562727,1824,1818,1819
1562737,1835,1808,1805
1562747,1788,1792,1769
1562757,1801,1803,1779
1562767,1824,1810,1808
1562777,1827,1825,1819
1562787,1837,1810,1811
1562797,1797,1791,1778
1562807,1808,1809,1791
1562817,1824,1811,1814
1562827,1840,1828,1827
1562837,1840,1808,1812
1562847,1798,1797,1783
1562857,1808,1809,1797
1562867,1823,1807,1811
1562877,1841,1830,1827
1562887,1831,1809,1809
1562897,1794,1796,1780
1562907,1804,1803,1797
1562917,1820,1814,1808
1562927,1835,1829,1830
1562937,1831,1809,1813
1562947,1790,1791,1775
1562957,1804,1804,1798
1562967,1824,1812,1808
1562977,1840,1829,1822
1562987,1823,1808,1814
1562997,1794,1797,1789
1563007,1809,1805,1810
1563017,1821,1814,1819
1563027,1846,1839,1840
1563037,1840,1827,1831
1563047,1814,1817,1822
1563057,1829,1829,1842
1563067,1850,1835,1853
1563077,1869,1852,1872
1563087,1858,1847,1857
1563097,1824,1830,1827
1563107,1840,1840,1855
1563117,1855,1834,1860
1563127,1863,1855,1861
1563137,1847,1839,1846
1563147,1814,1818,1823
1563157,1830,1826,1836
1563167,1840,1824,1833
1563177,1849,1839,1840
1563187,1844,1815,1822
1563197,1803,1808,1808
1563207,1829,1808,1821
1563217,1834,1814,1823
1563227,1841,1825,1831
1563237,1824,1808,1797
1563247,1795,1805,1797
1563257,1813,1808,1811
1563267,1817,1811,1826
1563277,1838,1820,1820
1563287,1815,1797,1791
1563297,1787,1798,1791
1563307,1805,1799,1808
1563317,1810,1810,1813
1563327,1834,1823,1823
1563337,1798,1794,1791
1563347,1793,1808,1802
1563357,1814,1811,1811
1563367,1836,1819,1827
1563377,1840,1821,1824
1563387,1805,1791,1792
1563397,1799,1808,1797
1563407,1815,1812,1810
1563417,1840,1830,1822
1563427,1841,1823,1824
1563437,1798,1803,1793
1563447,1800,1808,1793
1563457,1819,1808,1815
1563467,1838,1826,1826
1563477,1837,1819,1820
1563487,1783,1801,1791
1563497,1805,1808,1793
1563507,1818,1809,1810
1563517,1837,1821,1822
1563527,1839,1821,1815
1563537,1793,1798,1783
1563547,1802,1806,1789
1563557,1816,1807,1811
1563567,1829,1814,1818
1563577,1830,1810,1817
1563587,1791,1791,1786
1563597,1791,1805,1791
1563607,1811,1809,1808
1563617,1822,1820,1834
1563627,1827,1808,1815
1563637,1783,1791,1785
1563647,1795,1799,1793
1563657,1813,1808,1809
1563667,1829,1821,1827
1563677,1825,1808,1814
1563687,1779,1788,1782
1563697,1793,1805,1790
1563707,1808,1807,1808
1563717,1830,1819,1830
1563727,1828,1808,1808
1563737,1787,1788,1776
1563747,1798,1798,1793
1563757,1815,1805,1805
1563767,1840,1823,1827
1563777,1819,1810,1806
1563787,1781,1787,1778
1563797,1792,1799,1793
1563807,1808,1803,1802
1563817,1840,1831,1823
1563827,1820,1809,1808
1563837,1790,1793,1792
1563847,1809,1808,1806
1563857,1832,1813,1821
1563867,1859,1842,1846
1563877,1849,1821,1842
1563887,1819,1811,1823
1563897,1835,1831,1844
1563907,1846,1840,1850
1563917,1875,1846,1870
1563927,1861,1840,1856
1563937,1825,1825,1826
1563947,1840,1836,1843
1563957,1845,1828,1840
1563967,1861,1838,1858
1563977,1851,1831,1840
1563987,1815,1809,1818
1563997,1824,1823,1832
1564007,1826,1818,1824
1564017,1847,1827,1840
1564027,1830,1812,1823
1564037,1802,1795,1801
1564047,1818,1807,1819
1564057,1817,1809,1805
1564067,1838,1819,1827
1564077,1821,1806,1811
1564087,1788,1806,1798
1564097,1808,1808,1806
1564107,1807,1806,1805
1564117,1839,1815,1823
1564127,1814,1807,1790
1564137,1795,1797,1795
1564147,1814,1808,1805
1564157,1809,1808,1808
1564167,1839,1817,1825
1564177,1821,1795,1791
1564187,1792,1795,1801
1564197,1811,1808,1805
1564207,1821,1810,1833
1564217,1838,1826,1824
1564227,1806,1798,1787
1564237,1794,1803,1791
1564247,1819,1808,1808
1564257,1827,1824,1830
1564267,1837,1812,1808
1564277,1799,1791,1792
1564287,1794,1803,1792
1564297,1813,1803,1801
1564307,1837,1819,1817
1564317,1838,1814,1803
1564327,1789,1783,1790
1564337,1791,1804,1808
1564347,1808,1797,1796
1564357,1840,1817,1822
1564367,1829,1805,1812
1564377,1783,1791,1782
1564387,1792,1793,1799
1564397,1812,1803,1803
1564407,1840,1810,1808
1564417,1827,1827,1810
1564427,1784,1792,1777
1564437,1794,1797,1791
1564447,1811,1802,1808
1564457,1840,1813,1808
1564467,1826,1808,1807
1564477,1778,1789,1774
1564487,1791,1797,1788
1564497,1815,1799,1799
1564507,1827,1808,1819
1564517,1825,1815,1808
1564527,1785,1782,1776
1564537,1796,1799,1783
1564547,1812,1803,1803
1564557,1834,1808,1820
1564567,1822,1807,1801
1564577,1779,1787,1774
1564587,1788,1797,1788
1564597,1809,1805,1805
1564607,1827,1809,1818
1564617,1825,1806,1806
1564627,1769,1783,1773
1564637,1789,1796,1788
1564647,1809,1799,1795
1564657,1829,1822,1823
1564667,1815,1805,1803
1564677,1782,1783,1776
1564687,1794,1795,1789
1564697,1810,1808,1808
1564707,1840,1819,1829
1564717,1829,1808,1809
1564727,1797,1791,1795
1564737,1814,1809,1817
1564747,1833,1828,1835
1564757,1872,1841,1856
1564767,1853,1835,1845
1564777,1813,1811,1817
1564787,1827,1828,1841
1564797,1841,1835,1846
1564807,1877,1841,1859
1564817,1847,1837,1842
1564827,1818,1808,1816
1564837,1818,1819,1830
1564847,1837,1815,1826
1564857,1850,1831,1841
1564867,1831,1819,1822
1564877,1801,1799,1798
1564887,1808,1813,1810
1564897,1818,1808,1808
1564907,1834,1824,1825
1564917,1815,1808,1805
1564927,1777,1789,1790
1564937,1808,1805,1805
1564947,1814,1805,1808
1564957,1831,1815,1821
1564967,1821,1806,1799
1564977,1791,1783,1785
1564987,1808,1801,1797
1564997,1808,1799,1810
1565007,1828,1813,1819
1565017,1829,1808,1795
1565027,1796,1793,1794
1565037,1810,1808,1803
1565047,1823,1809,1820
1565057,1840,1822,1820
1565067,1823,1800,1797
1565077,1801,1792,1801
1565087,1807,1807,1808
1565097,1825,1809,1822
1565107,1835,1819,1817
1565117,1816,1794,1793
1565127,1806,1793,1797
1565137,1812,1805,1807
1565147,1830,1818,1823
1565157,1825,1811,1814
1565167,1806,1791,1793
1565177,1791,1793,1802
1565187,1810,1805,1805
1565197,1830,1815,1825
1565207,1826,1813,1814
1565217,1792,1789,1793
1565227,1793,1796,1806
1565237,1815,1809,1802
1565247,1839,1815,1813
1565257,1824,1814,1808
1565267,1795,1795,1792
1565277,1799,1798,1802
1565287,1805,1808,1810
1565297,1840,1811,1819
1565307,1829,1810,1809
1565317,1795,1789,1791
1565327,1799,1801,1798
1565337,1813,1802,1808
1565347,1840,1813,1815
1565357,1829,1808,1815
1565367,1795,1779,1787
1565377,1802,1797,1794
1565387,1810,1809,1807
1565397,1838,1821,1828
1565407,1835,1808,1810
1565417,1787,1781,1787
1565427,1798,1793,1795
1565437,1813,1804,1806
1565447,1838,1808,1819
1565457,1831,1811,1808
1565467,1787,1779,1783
1565477,1802,1794,1798
1565487,1820,1806,1802
1565497,1833,1818,1832
1565507,1823,1810,1808
1565517,1793,1782,1791
1565527,1805,1805,1807
1565537,1833,1818,1818
1565547,1847,1838,1845
1565557,1844,1825,1835
1565567,1809,1807,1815
1565577,1831,1827,1840
1565587,1840,1839,1850
1565597,1872,1847,1863
1565607,1858,1839,1851
1565617,1821,1806,1821
1565627,1831,1826,1835
1565637,1838,1826,1836
1565647,1856,1841,1856
1565657,1835,1826,1831
1565667,1813,1803,1811
1565677,1819,1815,1815
1565687,1820,1819,1814
1565697,1850,1823,1839
1565707,1829,1813,1820
1565717,1803,1792,1794
1565727,1808,1803,1808
1565737,1812,1808,1808
1565747,1840,1818,1825
1565757,1819,1807,1808
1565767,1796,1788,1793
1565777,1808,1797,1806
1565787,1811,1797,1796
1565797,1835,1810,1821
1565807,1823,1808,1799
1565817,1808,1783,1793
1565827,1811,1805,1807
1565837,1819,1803,1811
1565847,1841,1823,1827
1565857,1824,1809,1808
1565867,1808,1790,1801
1565877,1815,1808,1803
1565887,1820,1808,1817
1565897,1840,1821,1820
1565907,1823,1806,1806
1565917,1808,1792,1807
1565927,1810,1805,1808
1565937,1811,1799,1823
1565947,1836,1810,1817
1565957,1829,1807,1795
1565967,1806,1794,1810
1565977,1813,1808,1810
1565987,1824,1807,1829
1565997,1837,1822,1811
1566007,1813,1791,1791
1566017,1803,1789,1807
1566027,1811,1807,1803
1566037,1832,1819,1830
1566047,1836,1820,1817
1566057,1805,1795,1791
1566067,1802,1793,1808
1566077,1815,1812,1811
1566087,1839,1818,1835
1566097,1840,1813,1811
1566107,1805,1787,1792
1566117,1803,1800,1808
1566127,1826,1807,1807
1566137,1846,1827,1827
1566147,1840,1814,1817
1566157,1799,1787,1799
1566167,1799,1797,1808
1566177,1817,1807,1809
1566187,1842,1816,1828
1566197,1840,1822,1819
1566207,1799,1790,1792
1566217,1808,1796,1806
1566227,1811,1808,1810
1566237,1841,1810,1823
1566247,1838,1811,1817
1566257,1789,1781,1783
1566267,1806,1794,1803
1566277,1815,1808,1821
1566287,1839,1808,1825
1566297,1834,1811,1814
1566307,1786,1776,1779
1566317,1808,1793,1798
1566327,1811,1802,1803
1566337,1840,1807,1826
1566347,1831,1811,1808
1566357,1792,1776,1782
1566367,1808,1791,1794
1566377,1818,1808,1808
1566387,1839,1821,1834
1566397,1831,1811,1808
1566407,1793,1777,1791
1566417,1814,1792,1812
1566427,1826,1814,1815
1566437,1857,1829,1853
1566447,1854,1830,1840
1566457,1808,1805,1824
1566467,1838,1818,1843
1566477,1850,1836,1859
1566487,1872,1847,1872
1566497,1863,1841,1856
1566507,1824,1817,1840
1566517,1839,1826,1849
1566527,1845,1835,1847
1566537,1867,1847,1860
1566547,1849,1833,1850
1566557,1817,1801,1823
1566567,1827,1810,1831
1566577,1835,1826,1834
1566587,1851,1837,1841
1566597,1839,1821,1823
1566607,1807,1791,1808
1566617,1817,1803,1818
1566627,1823,1811,1820
1566637,1843,1824,1837
1566647,1827,1809,1815
1566657,1807,1792,1808
1566667,1809,1806,1808
1566677,1823,1808,1808
1566687,1838,1815,1827
1566697,1825,1808,1808
1566707,1803,1789,1803
1566717,1819,1803,1808
1566727,1821,1808,1804
1566737,1840,1818,1823
1566747,1822,1810,1810
1566757,1807,1787,1803
1566767,1814,1808,1808
1566777,1814,1809,1819
1566787,1843,1822,1829
1566797,1823,1813,1808
1566807,1807,1789,1808
1566817,1816,1808,1814
1566827,1819,1808,1826
1566837,1840,1821,1825
1566847,1823,1803,1794
1566857,1808,1793,1807
1566867,1810,1806,1805
1566877,1828,1808,1825
1566887,1830,1811,1820
1566897,1815,1793,1792
1566907,1807,1791,1807
1566917,1808,1805,1803
1566927,1825,1811,1823
1566937,1838,1809,1813
1566947,1803,1789,1793
1566957,1803,1789,1807
1566967,1806,1805,1803
1566977,1836,1813,1822
1566987,1827,1813,1813
1566997,1795,1779,1793
1567007,1799,1791,1807
1567017,1810,1797,1808
1567027,1837,1813,1823
1567037,1827,1807,1809
1567047,1797,1789,1789
1567057,1797,1781,1803
1567067,1805,1807,1800
1567077,1832,1809,1819
1567087,1825,1808,1810
1567097,1783,1777,1783
1567107,1793,1791,1807
1567117,1806,1799,1797
1567127,1831,1805,1810
1567137,1823,1806,1808
1567147,1781,1775,1789
1567157,1792,1781,1803
1567167,1808,1799,1805
1567177,1832,1799,1816
1567187,1826,1808,1808
1567197,1780,1776,1781
1567207,1799,1785,1803
1567217,1808,1798,1799
1567227,1824,1806,1824
1567237,1830,1807,1809
1567247,1791,1770,1787
1567257,1806,1788,1804
1567267,1809,1806,1805
1567277,1834,1811,1824
1567287,1827,1808,1808
1567297,1789,1775,1789
1567307,1799,1792,1806
1567317,1811,1803,1806
1567327,1837,1818,1834
1567337,1825,1810,1813
1567347,1805,1783,1798
1567357,1822,1803,1818
1567367,1828,1819,1827
1567377,1872,1840,1862
1567387,1857,1840,1851
1567397,1834,1807,1839
1567407,1855,1827,1855
1567417,1855,1841,1862
1567427,1885,1857,1886
1567437,1865,1843,1860
1567447,1838,1815,1844
1567457,1844,1824,1851
1567467,1849,1838,1845
1567477,1872,1840,1857
1567487,1848,1824,1840
1567497,1818,1802,1819
1567507,1827,1809,1824
1567517,1826,1811,1815
1567527,1853,1824,1840
1567537,1833,1811,1819
1567547,1808,1781,1808
1567557,1811,1806,1809
1567567,1825,1807,1815
1567577,1840,1818,1824
1567587,1821,1807,1808
1567597,1804,1786,1801
1567607,1812,1806,1808
1567617,1812,1808,1813
1567627,1845,1815,1825
1567637,1817,1808,1808
1567647,1810,1791,1803
1567657,1821,1807,1813
1567667,1821,1807,1826
1567677,1840,1820,1826
1567687,1817,1808,1809
1567697,1807,1793,1807
1567707,1808,1807,1807
1567717,1817,1803,1812
1567727,1836,1815,1818
1567737,1817,1799,1793
1567747,1807,1782,1799
1567757,1810,1796,1799
1567767,1822,1802,1819
1567777,1837,1810,1823
1567787,1808,1787,1792
1567797,1804,1791,1805
1567807,1808,1799,1808
1567817,1825,1810,1833
1567827,1839,1819,1821
1567837,1815,1786,1799
1567847,1811,1793,1811
1567857,1813,1807,1813
1567867,1830,1825,1844
1567877,1840,1815,1830
1567887,1808,1791,1803
1567897,1810,1789,1819
1567907,1822,1809,1811
1567917,1846,1813,1840
1567927,1839,1815,1821
1567937,1806,1785,1799
1567947,1823,1794,1815
1567957,1814,1807,1808
1567967,1851,1822,1838
1567977,1839,1819,1825
1567987,1803,1793,1802
1567997,1813,1803,1821
1568007,1819,1808,1809
1568017,1847,1817,1830
1568027,1837,1819,1823
1568037,1798,1782,1801
1568047,1812,1794,1815
1568057,1810,1808,1814
1568067,1840,1808,1821
1568077,1827,1809,1812
1568087,1787,1776,1787
1568097,1809,1786,1808
1568107,1808,1808,1807
1568117,1831,1805,1825
1568127,1825,1811,1809
1568137,1789,1774,1790
1568147,1808,1792,1809
1568157,1827,1810,1824
1568167,1852,1823,1847
1568177,1847,1823,1837
1568187,1821,1799,1823
1568197,1840,1815,1853
1568207,1845,1839,1857
1568217,1873,1856,1885
1568227,1869,1849,1867
1568237,1827,1813,1843
1568247,1850,1821,1858
1568257,1854,1837,1854
1568267,1872,1846,1875
1568277,1847,1837,1840
1568287,1823,1803,1819
1568297,1830,1808,1831
1568307,1837,1823,1830
1568317,1859,1835,1845
1568327,1841,1808,1825
1568337,1814,1787,1808
1568347,1826,1799,1813
1568357,1822,1811,1814
1568367,1853,1823,1839
1568377,1826,1813,1811
1568387,1806,1780,1805
1568397,1811,1794,1808
1568407,1817,1805,1808
1568417,1847,1824,1831
1568427,1822,1807,1803
1568437,1799,1777,1794
1568447,1814,1805,1805
1568457,1810,1806,1808
1568467,1846,1818,1829
1568477,1825,1806,1808
1568487,1808,1781,1806
1568497,1818,1804,1808
1568507,1813,1808,1794
1568517,1840,1821,1831
1568527,1821,1808,1811
1568537,1805,1790,1808
1568547,1812,1806,1809
1568557,1813,1802,1808
1568567,1840,1826,1826
1568577,1819,1808,1806
1568587,1810,1787,1803
1568597,1806,1808,1806
1568607,1803,1812,1815
1568617,1838,1822,1822
1568627,1817,1806,1798
1568637,1808,1785,1797
1568647,1808,1806,1805
1568657,1815,1805,1818
1568667,1840,1819,1826
1568677,1818,1792,1794
1568687,1807,1791,1806
1568697,1813,1808,1806
1568707,1830,1803,1827
1568717,1837,1815,1819
1568727,1808,1790,1803
1568737,1805,1792,1808
1568747,1808,1808,1809
1568757,1836,1824,1825
1568767,1838,1821,1814
1568777,1805,1794,1794
1568787,1805,1791,1808
1568797,1806,1807,1809
1568807,1840,1817,1832
1568817,1838,1813,1820
1568827,1805,1787,1799
1568837,1804,1793,1809
1568847,1814,1807,1808
1568857,1842,1815,1831
1568867,1838,1808,1822
1568877,1793,1790,1797
1568887,1808,1792,1810
1568897,1811,1806,1808
1568907,1840,1811,1822
1568917,1829,1810,1818
1568927,1789,1776,1796
1568937,1808,1791,1808
1568947,1809,1805,1808
1568957,1840,1805,1822
1568967,1823,1810,1815
1568977,1787,1777,1792
1568987,1805,1794,1806
1568997,1811,1805,1810
1569007,1839,1810,1829
1569017,1833,1817,1825
1569027,1801,1785,1811
1569037,1822,1806,1835
1569047,1840,1824,1843
1569057,1861,1840,1871
1569067,1851,1840,1859
1569077,1831,1810,1835
1569087,1843,1824,1858
1569097,1846,1835,1861
1569107,1869,1846,1877
1569117,1856,1833,1854
1569127,1824,1806,1835
1569137,1839,1807,1839
1569147,1838,1823,1841
1569157,1865,1840,1865
1569167,1847,1823,1839
1569177,1808,1792,1812
1569187,1827,1807,1819
1569197,1821,1814,1816
1569207,1848,1828,1842
1569217,1829,1810,1825
1569227,1808,1786,1805
1569237,1817,1798,1809
1569247,1811,1808,1808
1569257,1847,1817,1830
1569267,1829,1808,1809
1569277,1803,1779,1798
1569287,1813,1791,1806
1569297,1810,1802,1808
1569307,1840,1823,1826
1569317,1818,1804,1811
1569327,1802,1777,1798
1569337,1811,1797,1802
1569347,1813,1799,1812
1569357,1840,1819,1828
1569367,1827,1808,1811
1569377,1799,1792,1798
1569387,1810,1808,1806
1569397,1809,1808,1807
1569407,1840,1819,1827
1569417,1823,1808,1814
1569427,1806,1788,1807
1569437,1815,1807,1815
1569447,1821,1799,1811
1569457,1837,1826,1826
1569467,1820,1803,1808
1569477,1805,1793,1801
1569487,1814,1806,1808
1569497,1831,1803,1810
1569507,1843,1830,1823
1569517,1823,1811,1794
1569527,1808,1782,1801
1569537,1811,1805,1807
1569547,1836,1808,1822
1569557,1841,1824,1822
1569567,1825,1793,1791
1569577,1804,1797,1812
1569587,1819,1808,1809
1569597,1830,1811,1834
1569607,1840,1818,1825
1569617,1824,1783,1802
1569627,1809,1787,1805
1569637,1821,1814,1819
1569647,1838,1824,1837
1569657,1843,1818,1822
1569667,1811,1787,1806
1569677,1811,1798,1802
1569687,1808,1805,1811
1569697,1840,1823,1831
1569707,1839,1808,1817
1569717,1801,1780,1791
1569727,1809,1789,1808
1569737,1808,1794,1808
1569747,1844,1818,1823
1569757,1838,1813,1820
1569767,1801,1783,1794
1569777,1808,1795,1808
1569787,1821,1808,1808
1569797,1847,1808,1825
1569807,1831,1814,1815
1569817,1806,1782,1799
1569827,1814,1799,1808
1569837,1813,1810,1813
1569847,1841,1811,1823
1569857,1837,1814,1817
1569867,1807,1782,1797
1569877,1822,1801,1807
1569887,1826,1809,1808
1569897,1843,1819,1829
1569907,1840,1819,1830
1569917,1807,1787,1811
1569927,1835,1808,1829
1569937,1846,1827,1840
1569947,1866,1840,1859
1569957,1867,1841,1859
1569967,1834,1808,1840
1569977,1840,1820,1847
1569987,1854,1837,1855
1569997,1873,1851,1873
1570007,1861,1840,1852
1570017,1823,1803,1829
1570027,1838,1815,1834
1570037,1839,1827,1839
1570047,1861,1840,1853
1570057,1845,1829,1839
1570067,1810,1789,1806
1570077,1819,1800,1812
1570087,1830,1810,1819
1570097,1846,1835,1841
1570107,1835,1807,1817
1570117,1808,1779,1791
1570127,1808,1792,1801
1570137,1818,1810,1809
1570147,1843,1823,1824
1570157,1825,1808,1806
1570167,1798,1779,1790
1570177,1809,1791,1805
1570187,1817,1808,1808
1570197,1846,1823,1826
1570207,1823,1809,1807
1570217,1802,1791,1796
1570227,1822,1797,1810
1570237,1825,1807,1812
1570247,1847,1827,1831
1570257,1836,1815,1819
1570267,1808,1793,1802
1570277,1837,1808,1810
1570287,1824,1810,1817
1570297,1840,1824,1834
1570307,1839,1810,1813
1570317,1811,1792,1795
1570327,1821,1808,1807
1570337,1823,1808,1809
1570347,1843,1822,1821
1570357,1830,1809,1808
1570367,1809,1798,1798
1570377,1822,1808,1802
1570387,1815,1811,1808
1570397,1836,1819,1818
1570407,1819,1808,1794
1570417,1809,1795,1791
1570427,1808,1808,1808
1570437,1812,1809,1819
1570447,1841,1815,1819
1570457,1817,1801,1797
1570467,1805,1791,1801
1570477,1813,1808,1808
1570487,1825,1818,1827
1570497,1836,1818,1826
1570507,1813,1795,1794
1570517,1803,1799,1799
1570527,1815,1806,1808
1570537,1821,1827,1830
1570547,1836,1817,1820
1570557,1806,1789,1789
1570567,1803,1795,1792
1570577,1808,1805,1794
1570587,1839,1819,1821
1570597,1827,1808,1809
1570607,1803,1793,1787
1570617,1806,1797,1798
1570627,1810,1807,1799
1570637,1827,1814,1813
1570647,1824,1810,1807
1570657,1801,1793,1789
1570667,1803,1792,1795
1570677,1815,1803,1802
1570687,1836,1814,1819
1570697,1830,1821,1814
1570707,1807,1791,1793
1570717,1811,1802,1807
1570727,1815,1808,1817
1570737,1840,1821,1827
1570747,1838,1822,1824
1570757,1807,1793,1808
1570767,1814,1802,1817
1570777,1835,1811,1823
1570787,1845,1829,1840
1570797,1847,1826,1838
1570807,1813,1808,1817
1570817,1834,1817,1833
1570827,1840,1835,1840
1570837,1868,1849,1867
1570847,1860,1844,1854
1570857,1827,1809,1829
1570867,1841,1819,1840
1570877,1843,1833,1837
1570887,1862,1841,1853
1570897,1856,1840,1837
1570907,1821,1803,1808
1570917,1824,1808,1809
1570927,1834,1819,1819
1570937,1851,1830,1839
1570947,1840,1815,1814
1570957,1807,1792,1787
1570967,1808,1802,1795
1570977,1827,1810,1807
1570987,1843,1823,1824
1570997,1829,1806,1808
1571007,1796,1782,1782
1571017,1808,1801,1797
1571027,1817,1800,1799
1571037,1838,1814,1826
1571047,1815,1805,1807
1571057,1799,1791,1787
1571067,1811,1796,1801
1571077,1810,1806,1804
1571087,1837,1818,1822
1571097,1823,1808,1810
1571107,1798,1787,1794
1571117,1805,1808,1803
1571127,1808,1808,1806
1571137,1840,1824,1825
1571147,1819,1810,1809
1571157,1801,1790,1789
1571167,1808,1811,1807
1571177,1814,1802,1803
1571187,1833,1818,1823
1571197,1811,1805,1805
1571207,1801,1791,1779
1571217,1809,1803,1794
1571227,1806,1799,1793
1571237,1829,1812,1805
1571247,1811,1805,1787
1571257,1795,1797,1776
1571267,1803,1808,1787
1571277,1806,1799,1782
1571287,1827,1811,1798
1571297,1809,1799,1776
1571307,1791,1792,1776
1571317,1801,1807,1791
1571327,1807,1801,1792
1571337,1824,1819,1802
1571347,1803,1792,1774
1571357,1782,1791,1777
1571367,1799,1799,1787
1571377,1806,1808,1806
1571387,1826,1807,1794
1571397,1795,1790,1765
1571407,1789,1795,1771
1571417,1808,1805,1770
1571427,1815,1823,1792
1571437,1828,1808,1780
1571447,1791,1793,1753
1571457,1797,1791,1753
1571467,1808,1799,1764
1571477,1840,1821,1787
1571487,1828,1807,1781
1571497,1795,1791,1759
1571507,1797,1792,1776
1571517,1811,1805,1782
1571527,1840,1819,1790
1571537,1821,1810,1795
1571547,1795,1783,1777
1571557,1804,1801,1791
1571567,1809,1798,1795
1571577,1831,1814,1804
1571587,1830,1815,1812
1571597,1795,1786,1796
1571607,1808,1797,1809
1571617,1819,1806,1813
1571627,1831,1822,1827
1571637,1836,1823,1838
1571647,1814,1806,1819
1571657,1827,1819,1840
1571667,1841,1830,1857
1571677,1853,1840,1871
1571687,1856,1841,1863
1571697,1821,1812,1845
1571707,1834,1830,1851
1571717,1840,1831,1853
1571727,1853,1842,1865
1571737,1846,1831,1845
1571747,1808,1803,1812
1571757,1819,1806,1823
1571767,1826,1808,1815
1571777,1840,1828,1837
1571787,1835,1808,1820
1571797,1794,1779,1782
1571807,1798,1799,1794
1571817,1814,1806,1801
1571827,1838,1819,1824
1571837,1825,1804,1805
1571847,1791,1782,1776
1571857,1809,1791,1789
1571867,1814,1808,1806
1571877,1836,1824,1811
1571887,1819,1808,1807
1571897,1794,1785,1789
1571907,1807,1798,1803
1571917,1823,1808,1808
1571927,1847,1823,1823
1571937,1829,1809,1813
1571947,1795,1793,1792
1571957,1818,1801,1805
1571967,1817,1808,1813
1571977,1840,1831,1821
1571987,1824,1809,1814
1571997,1803,1796,1789
1572007,1808,1806,1808
1572017,1822,1814,1808
1572027,1841,1818,1826
1572037,1822,1809,1802
1572047,1796,1795,1792
1572057,1812,1802,1802
1572067,1812,1805,1807
1572077,1839,1813,1817
1572087,1824,1805,1803
1572097,1797,1790,1780
1572107,1817,1806,1799
1572117,1811,1808,1807
1572127,1839,1817,1819
1572137,1830,1807,1805
1572147,1802,1797,1793
1572157,1811,1808,1805
1572167,1823,1812,1808
1572177,1849,1822,1824
1572187,1830,1809,1791
1572197,1802,1797,1794
1572207,1826,1808,1809
1572217,1824,1822,1808
1572227,1839,1815,1818
1572237,1824,1797,1790
1572247,1803,1801,1796
1572257,1819,1809,1803
1572267,1825,1821,1824
1572277,1837,1820,1813
1572287,1808,1796,1786
1572297,1805,1808,1791
1572307,1819,1808,1809
1572317,1830,1817,1820
1572327,1835,1819,1812
1572337,1808,1801,1794
1572347,1807,1808,1799
1572357,1815,1808,1815
1572367,1839,1837,1830
1572377,1840,1818,1831
1572387,1817,1811,1814
1572397,1822,1822,1826
1572407,1840,1829,1845
1572417,1866,1843,1854
1572427,1872,1843,1858
1572437,1833,1827,1839
1572447,1840,1835,1842
1572457,1843,1840,1846
1572467,1863,1840,1853
1572477,1856,1839,1851
1572487,1825,1824,1818
1572497,1817,1826,1818
1572507,1835,1821,1823
1572517,1842,1827,1828
1572527,1841,1821,1824
1572537,1803,1806,1791
1572547,1808,1803,1798
1572557,1817,1803,1808
1572567,1830,1813,1814
1572577,1830,1815,1808
1572587,1784,1785,1775
1572597,1797,1799,1790
1572607,1808,1799,1798
1572617,1819,1821,1811
1572627,1819,1808,1803
1572637,1781,1787,1776
1572647,1793,1802,1791
1572657,1808,1808,1802
1572667,1830,1825,1825
1572677,1822,1810,1811
1572687,1791,1788,1787
1572697,1797,1802,1800
1572707,1821,1808,1818
1572717,1840,1822,1838
1572727,1835,1812,1815
1572737,1793,1793,1792
1572747,1807,1807,1806
1572757,1820,1808,1813
1572767,1847,1824,1831
1572777,1825,1809,1814
1572787,1792,1792,1786
1572797,1797,1803,1802
1572807,1821,1808,1808
1572817,1838,1824,1823
1572827,1827,1808,1809
1572837,1790,1792,1779
1572847,1808,1807,1806
1572857,1813,1805,1803
1572867,1839,1818,1824
1572877,1825,1806,1808
1572887,1791,1799,1786
1572897,1802,1808,1813
1572907,1819,1802,1811
1572917,1840,1820,1829
1572927,1830,1813,1810
1572937,1803,1798,1791
1572947,1821,1809,1810
1572957,1819,1809,1808
1572967,1841,1818,1829
1572977,1836,1811,1815
1572987,1803,1797,1793
1572997,1819,1806,1812
1573007,1818,1807,1808
1573017,1834,1823,1828
1573027,1825,1810,1808
1573037,1798,1805,1793
1573047,1811,1814,1806
1573057,1812,1810,1807
1573067,1840,1824,1823
1573077,1819,1807,1791
1573087,1801,1798,1799
1573097,1824,1813,1808
1573107,1815,1815,1817
1573117,1847,1830,1828
1573127,1827,1807,1805
1573137,1812,1814,1814
1573147,1845,1829,1837
1573157,1849,1851,1855
1573167,1872,1846,1858
1573177,1843,1830,1838
1573187,1840,1840,1841
1573197,1867,1842,1851
1573207,1872,1859,1862
1573217,1879,1852,1860
1573227,1845,1827,1824
1573237,1837,1839,1830
1573247,1843,1836,1840
1573257,1870,1849,1840
1573267,1859,1841,1835
1573277,1823,1808,1803
1573287,1815,1817,1808
1573297,1834,1811,1818
1573307,1851,1831,1813
1573317,1846,1819,1819
1573327,1803,1799,1791
1573337,1808,1811,1792
1573347,1821,1808,1806
1573357,1831,1815,1802
1573367,1834,1811,1809
1573377,1794,1789,1776
1573387,1797,1801,1786
1573397,1823,1808,1799
1573407,1828,1819,1803
1573417,1838,1817,1808
1573427,1797,1795,1775
1573437,1798,1805,1786
1573447,1821,1807,1803
1573457,1831,1823,1810
1573467,1840,1814,1808
1573477,1802,1792,1777
1573487,1806,1808,1797
1573497,1834,1808,1815
1573507,1830,1829,1827
1573517,1840,1818,1822
1573527,1795,1792,1782
1573537,1805,1808,1804
1573547,1825,1808,1812
1573557,1839,1824,1834
1573567,1837,1817,1812
1573577,1793,1791,1782
1573587,1809,1807,1803
1573597,1820,1808,1810
1573607,1842,1825,1824
1573617,1835,1809,1813
1573627,1792,1791,1779
1573637,1803,1808,1802
1573647,1815,1807,1811
1573657,1840,1827,1815
1573667,1826,1810,1811
1573677,1791,1795,1776
1573687,1804,1802,1791
1573697,1819,1805,1796
1573707,1840,1827,1811
1573717,1821,1807,1801
1573727,1789,1794,1766
1573737,1807,1806,1781
1573747,1811,1811,1787
1573757,1840,1822,1806
1573767,1821,1807,1791
1573777,1786,1794,1762
1573787,1803,1807,1787
1573797,1811,1808,1795
1573807,1831,1817,1802
1573817,1821,1808,1787
1573827,1787,1798,1771
1573837,1802,1798,1789
1573847,1819,1803,1799
1573857,1831,1814,1807
1573867,1817,1806,1793
1573877,1782,1796,1773
1573887,1810,1811,1791
1573897,1815,1802,1795
1573907,1839,1821,1815
1573917,1834,1811,1791
1573927,1808,1815,1803
1573937,1835,1821,1830
1573947,1840,1833,1842
1573957,1865,1842,1861
1573967,1847,1823,1834
1573977,1825,1834,1845
1573987,1845,1840,1859
1573997,1847,1841,1872
1574007,1867,1845,1869
1574017,1837,1820,1839
1574027,1817,1830,1833
1574037,1839,1825,1849
1574047,1831,1835,1846
1574057,1842,1829,1841
1574067,1808,1803,1808
1574077,1798,1811,1808
1574087,1821,1808,1822
1574097,1829,1833,1824
1574107,1829,1815,1823
1574117,1790,1795,1790
1574127,1791,1808,1799
1574137,1802,1801,1805
1574147,1831,1821,1808
1574157,1823,1809,1810
1574167,1790,1790,1778
1574177,1791,1801,1792
1574187,1808,1808,1807
1574197,1824,1815,1807
1574207,1830,1813,1815
1574217,1789,1797,1791
1574227,1798,1813,1799
1574237,1815,1805,1818
1574247,1835,1821,1818
1574257,1839,1819,1824
1574267,1799,1803,1793
1574277,1795,1809,1798
1574287,1822,1812,1813
1574297,1823,1825,1815
1574307,1835,1813,1815
1574317,1783,1803,1778
1574327,1793,1811,1794
1574337,1812,1807,1808
1574347,1827,1821,1815
1574357,1827,1808,1806
1574367,1776,1796,1771
1574377,1802,1807,1781
1574387,1817,1803,1790
1574397,1829,1821,1808
1574407,1825,1811,1801
1574417,1775,1793,1763
1574427,1795,1807,1776
1574437,1810,1808,1796
1574447,1840,1823,1806
1574457,1826,1806,1793
1574467,1786,1792,1760
1574477,1804,1808,1777
1574487,1817,1808,1795
1574497,1837,1822,1808
1574507,1823,1807,1793
1574517,1781,1792,1760
1574527,1799,1802,1782
1574537,1811,1807,1785
1574547,1839,1818,1798
1574557,1824,1808,1786
1574567,1781,1793,1750
1574577,1803,1808,1779
1574587,1812,1806,1780
1574597,1840,1813,1802
1574607,1817,1808,1790
1574617,1790,1798,1755
1574627,1807,1808,1791
1574637,1814,1808,1795
1574647,1839,1825,1808
1574657,1831,1811,1805
1574667,1801,1809,1785
1574677,1822,1819,1826
1574687,1835,1825,1822
1574697,1863,1840,1858
1574707,1854,1831,1851
1574717,1821,1831,1830
1574727,1840,1837,1865
1574737,1843,1840,1863
1574747,1865,1849,1876
1574757,1847,1838,1856
1574767,1808,1828,1834
1574777,1831,1834,1855
1574787,1834,1830,1845
1574797,1843,1838,1851
1574807,1834,1811,1810
1574817,1798,1793,1809
1574827,1814,1812,1827
1574837,1813,1822,1826
1574847,1843,1827,1834
1574857,1818,1792,1793
1574867,1791,1802,1792
1574877,1814,1807,1811
1574887,1811,1824,1835
1574897,1837,1815,1818
1574907,1794,1790,1779
1574917,1797,1805,1778
1574927,1806,1805,1808
1574937,1823,1821,1821
1574947,1833,1813,1811
1574957,1803,1786,1791
1574967,1791,1803,1799
1574977,1809,1809,1818
1574987,1842,1823,1813
1574997,1835,1819,1821
1575007,1798,1804,1802
1575017,1797,1811,1803
1575027,1818,1808,1815
1575037,1837,1824,1819
1575047,1840,1833,1815
1575057,1799,1808,1791
1575067,1806,1811,1803
1575077,1824,1808,1810
1575087,1831,1820,1808
1575097,1837,1813,1821
1575107,1790,1798,1786
1575117,1801,1808,1804
1575127,1820,1808,1808
1575137,1822,1814,1817
1575147,1825,1814,1818
1575157,1786,1797,1789
1575167,1794,1808,1797
1575177,1822,1807,1808
1575187,1823,1813,1821
1575197,1828,1818,1821
1575207,1790,1795,1782
1575217,1793,1803,1792
1575227,1815,1805,1806
1575237,1830,1824,1822
1575247,1819,1815,1817
1575257,1781,1799,1776
1575267,1794,1808,1798
1575277,1811,1806,1808
1575287,1838,1829,1823
1575297,1827,1810,1813
1575307,1783,1795,1781
1575317,1793,1808,1799
1575327,1818,1809,1813
1575337,1840,1827,1827
1575347,1821,1810,1813
1575357,1786,1799,1775
1575367,1802,1808,1794
1575377,1815,1808,1808
1575387,1840,1818,1824
1575397,1825,1808,1819
1575407,1792,1795,1791
1575417,1813,1814,1821
1575427,1829,1813,1838
1575437,1853,1840,1857
1575447,1843,1826,1856
1575457,1808,1822,1831
1575467,1832,1835,1858
1575477,1846,1831,1866
1575487,1863,1851,1875
1575497,1850,1838,1872
1575507,1811,1824,1829
1575517,1818,1834,1854
1575527,1838,1827,1851
1575537,1840,1839,1863
1575547,1840,1824,1852
1575557,1801,1809,1813
1575567,1830,1817,1834
1575577,1825,1807,1840
1575587,1841,1827,1841
1575597,1829,1815,1824
1575607,1792,1808,1795
1575617,1815,1808,1817
1575627,1823,1808,1815
1575637,1840,1818,1823
1575647,1823,1812,1786
1575657,1791,1807,1783
1575667,1808,1808,1808
1575677,1809,1808,1808
1575687,1831,1814,1817
1575697,1813,1795,1778
1575707,1795,1799,1778
1575717,1808,1808,1805
1575727,1805,1813,1814
1575737,1836,1821,1825
1575747,1807,1792,1787
1575757,1790,1802,1792
1575767,1819,1808,1809
1575777,1817,1823,1823
1575787,1844,1818,1826
1575797,1815,1799,1791
1575807,1793,1808,1798
1575817,1814,1803,1815
1575827,1834,1825,1823
1575837,1835,1820,1823
1575847,1797,1806,1790
1575857,1792,1810,1799
1575867,1819,1803,1808
1575877,1825,1825,1811
1575887,1840,1818,1815
1575897,1793,1794,1783
1575907,1793,1807,1793
1575917,1816,1808,1804
1575927,1825,1821,1802
1575937,1829,1808,1811
1575947,1793,1794,1781
1575957,1791,1803,1790
1575967,1818,1808,1797
1575977,1825,1818,1807
1575987,1838,1810,1814
1575997,1794,1794,1781
1576007,1793,1808,1790
1576017,1818,1807,1808
1576027,1821,1816,1818
1576037,1825,1811,1808
1576047,1789,1798,1789
1576057,1795,1805,1796
1576067,1808,1806,1815
1576077,1822,1821,1822
1576087,1828,1808,1814
1576097,1782,1795,1787
1576107,1793,1805,1796
1576117,1812,1806,1808
1576127,1830,1825,1825
1576137,1827,1809,1815
1576147,1781,1791,1786
1576157,1792,1811,1794
1576167,1816,1807,1808
1576177,1841,1825,1833
1576187,1831,1813,1820
1576197,1782,1803,1798
1576207,1813,1819,1821
1576217,1833,1818,1837
1576227,1862,1843,1856
1576237,1855,1835,1858
1576247,1813,1821,1825
1576257,1827,1839,1847
1576267,1856,1840,1860
1576277,1867,1856,1877
1576287,1847,1831,1860
1576297,1811,1813,1829
1576307,1819,1826,1843
1576317,1840,1826,1850
1576327,1856,1840,1862
1576337,1839,1826,1840
1576347,1799,1808,1807
1576357,1810,1815,1823
1576367,1810,1820,1823
1576377,1840,1830,1838
1576387,1829,1818,1821
1576397,1783,1794,1792
1576407,1809,1805,1808
1576417,1810,1806,1805
1576427,1839,1819,1823
1576437,1815,1808,1807
1576447,1780,1791,1776
1576457,1808,1798,1798
1576467,1807,1808,1792
1576477,1837,1815,1809
1576487,1813,1805,1776
1576497,1777,1795,1776
1576507,1812,1804,1793
1576517,1809,1808,1804
1576527,1840,1819,1809
1576537,1818,1791,1779
1576547,1789,1803,1785
1576557,1810,1804,1802
1576567,1808,1809,1811
1576577,1829,1819,1815
1576587,1808,1794,1777
1576597,1791,1801,1791
1576607,1814,1807,1797
1576617,1813,1818,1828
1576627,1834,1813,1815
1576637,1801,1795,1781
1576647,1797,1803,1793
1576657,1808,1805,1799
1576667,1833,1822,1814
1576677,1827,1813,1811
1576687,1790,1792,1779
1576697,1795,1797,1783
1576707,1808,1805,1802
1576717,1825,1819,1807
1576727,1826,1809,1809
1576737,1791,1797,1782
1576747,1795,1797,1795
1576757,1815,1808,1799
1576767,1814,1814,1806
1576777,1828,1811,1808
1576787,1786,1793,1781
1576797,1795,1804,1782
1576807,1814,1806,1803
1576817,1822,1819,1798
1576827,1830,1808,1809
1576837,1786,1797,1781
1576847,1795,1803,1786
1576857,1812,1807,1801
1576867,1820,1815,1811
1576877,1827,1809,1814
1576887,1783,1794,1783
1576897,1803,1807,1792
1576907,1817,1806,1803
1576917,1828,1814,1812
1576927,1838,1805,1805
1576937,1789,1798,1782
1576947,1791,1807,1789
1576957,1810,1808,1795
1576967,1825,1821,1817
1576977,1826,1808,1802
1576987,1777,1792,1778
1576997,1794,1808,1786
1577007,1813,1806,1794
1577017,1834,1815,1819
1577027,1834,1810,1804
1577037,1779,1797,1776
1577047,1801,1808,1795
1577057,1825,1810,1808
1577067,1847,1835,1834
1577077,1840,1815,1836
1577087,1803,1808,1817
1577097,1824,1831,1840
1577107,1849,1837,1852
1577117,1870,1854,1875
1577127,1857,1842,1862
1577137,1811,1822,1837
1577147,1829,1834,1860
1577157,1846,1841,1862
1577167,1861,1850,1871
1577177,1844,1827,1840
1577187,1799,1811,1808
1577197,1812,1823,1826
1577207,1831,1815,1826
1577217,1843,1833,1836
1577227,1833,1818,1821
1577237,1791,1791,1781
1577247,1814,1813,1805
1577257,1813,1808,1810
1577267,1835,1826,1817
1577277,1827,1805,1802
1577287,1779,1797,1774
1577297,1807,1803,1792
1577307,1813,1796,1798
1577317,1837,1815,1806
1577327,1810,1801,1779
1577337,1779,1792,1770
1577347,1813,1799,1791
1577357,1825,1808,1808
1577367,1839,1819,1815
1577377,1817,1799,1777
1577387,1792,1799,1787
1577397,1814,1807,1806
1577407,1825,1820,1823
1577417,1838,1820,1817
1577427,1808,1797,1780
1577437,1795,1805,1790
1577447,1813,1812,1808
1577457,1825,1826,1823
1577467,1838,1812,1819
1577477,1808,1800,1787
1577487,1801,1807,1795
1577497,1809,1805,1805
