timestamp_ms_device,ppg_finger1,ppg_finger2,ppg_finger3
1841234,1851,1845,1842
1841244,1853,1845,1845
1841254,1853,1846,1846
1841264,1854,1846,1849
1841274,1859,1845,1851
1841284,1861,1850,1859
1841294,1862,1855,1866
1841304,1872,1860,1873
1841314,1877,1869,1885
1841324,1889,1875,1898
1841334,1902,1883,1904
1841344,1905,1891,1911
1841354,1911,1895,1906
1841364,1923,1901,1911
1841374,1926,1903,1909
1841384,1929,1904,1907
1841394,1930,1902,1904
1841404,1926,1901,1901
1841414,1920,1893,1890
1841424,1915,1892,1886
1841434,1911,1887,1879
1841444,1909,1882,1872
1841454,1901,1876,1872
1841464,1898,1874,1862
1841474,1888,1872,1863
1841484,1885,1869,1859
1841494,1878,1865,1858
1841504,1874,1856,1857
1841514,1869,1858,1850
1841524,1859,1855,1850
1841534,1858,1851,1843
1841544,1856,1850,1840
1841554,1854,1842,1843
1841564,1851,1842,1843
1841574,1851,1841,1844
1841584,1851,1843,1840
1841594,1847,1844,1843
1841604,1849,1842,1849
1841614,1849,1844,1854
1841624,1853,1849,1855
1841634,1855,1847,1857
1841644,1855,1849,1856
1841654,1856,1852,1856
1841664,1857,1847,1857
1841674,1861,1850,1856
1841684,1858,1854,1857
1841694,1855,1852,1855
1841704,1859,1854,1858
1841714,1859,1851,1852
1841724,1857,1854,1854
1841734,1857,1855,1854
1841744,1857,1850,1853
1841754,1856,1845,1854
1841764,1857,1846,1851
1841774,1857,1846,1847
1841784,1855,1847,1853
1841794,1853,1847,1853
1841804,1853,1847,1854
1841814,1855,1846,1856
1841824,1858,1851,1856
1841834,1854,1847,1854
1841844,1856,1847,1856
1841854,1851,1847,1856
1841864,1856,1845,1855
1841874,1853,1850,1854
1841884,1855,1845,1851
1841894,1853,1846,1853
1841904,1856,1850,1856
1841914,1856,1845,1851
1841924,1855,1849,1851
1841934,1859,1851,1853
1841944,1855,1847,1853
1841954,1856,1850,1854
1841964,1854,1854,1849
1841974,1858,1850,1854
1841984,1864,1855,1861
1841994,1869,1863,1872
1842004,1875,1865,1882
1842014,1888,1872,1887
1842024,1900,1881,1897
1842034,1907,1886,1904
1842044,1917,1891,1914
1842054,1923,1895,1909
1842064,1934,1899,1913
1842074,1931,1904,1916
1842084,1934,1904,1908
1842094,1926,1904,1904
1842104,1926,1902,1899
1842114,1917,1901,1890
1842124,1917,1897,1888
1842134,1909,1891,1875
1842144,1905,1879,1872
1842154,1898,1881,1867
1842164,1889,1873,1862
1842175,1882,1870,1858
1842185,1875,1868,1855
1842195,1872,1862,1853
1842205,1865,1858,1846
1842215,1859,1856,1845
1842225,1856,1852,1843
1842235,1853,1846,1839
1842245,1855,1846,1837
1842255,1850,1841,1839
1842265,1847,1840,1840
1842275,1847,1840,1841
1842285,1851,1839,1840
1842295,1853,1839,1841
1842305,1853,1840,1845
1842315,1856,1840,1840
1842325,1857,1846,1847
1842335,1855,1843,1847
1842345,1861,1847,1850
1842355,1861,1841,1845
1842365,1865,1842,1849
1842375,1866,1847,1853
1842385,1867,1849,1851
1842395,1869,1846,1855
1842405,1865,1846,1855
1842415,1862,1852,1853
1842425,1859,1846,1857
1842435,1862,1855,1857
1842445,1859,1850,1851
1842455,1856,1856,1858
1842465,1857,1852,1854
1842475,1854,1842,1856
1842485,1854,1846,1851
1842495,1856,1840,1845
1842505,1857,1855,1854
1842515,1855,1855,1853
1842525,1854,1857,1847
1842535,1856,1855,1853
1842545,1855,1850,1850
1842555,1856,1862,1853
1842565,1856,1858,1849
1842575,1852,1842,1845
1842585,1859,1852,1855
1842595,1856,1841,1849
1842605,1858,1851,1854
1842615,1860,1845,1846
1842625,1853,1841,1850
1842635,1859,1853,1844
1842645,1855,1849,1847
1842655,1857,1854,1851
1842665,1861,1855,1854
1842675,1863,1850,1859
1842685,1872,1866,1871
1842695,1882,1866,1879
1842705,1895,1872,1895
1842715,1904,1879,1907
1842725,1915,1883,1914
1842735,1927,1901,1922
1842745,1935,1904,1922
1842755,1936,1915,1929
1842765,1936,1905,1922
1842775,1936,1911,1915
1842785,1940,1909,1909
1842795,1934,1904,1903
1842805,1933,1904,1893
1842815,1927,1901,1891
1842825,1919,1887,1884
1842835,1914,1891,1878
1842845,1906,1882,1872
1842855,1903,1884,1867
1842865,1894,1871,1859
1842875,1886,1856,1853
1842885,1883,1856,1855
1842895,1875,1855,1847
1842905,1876,1871,1853
1842915,1868,1853,1841
1842925,1862,1840,1840
1842935,1857,1842,1846
1842945,1851,1840,1840
1842955,1851,1847,1841
1842965,1845,1833,1840
1842975,1846,1829,1841
1842985,1846,1838,1843
1842995,1846,1837,1840
1843005,1851,1837,1845
1843015,1846,1834,1843
1843025,1845,1835,1850
1843035,1850,1849,1854
1843045,1846,1840,1855
1843055,1850,1846,1853
1843065,1851,1844,1853
1843075,1846,1840,1854
1843085,1854,1847,1856
1843095,1843,1843,1854
1843105,1845,1843,1856
1843115,1849,1840,1852
1843125,1850,1842,1853
1843135,1852,1854,1853
1843145,1851,1842,1849
1843155,1855,1847,1847
1843165,1850,1837,1843
1843175,1850,1844,1849
1843185,1851,1850,1854
1843195,1853,1844,1844
1843205,1851,1845,1851
1843215,1850,1835,1841
1843225,1853,1843,1840
1843235,1852,1850,1849
1843245,1850,1840,1843
1843255,1849,1840,1845
1843265,1845,1829,1840
1843275,1842,1829,1842
1843285,1840,1846,1840
1843295,1840,1836,1836
1843305,1836,1834,1827
1843315,1833,1827,1810
1843325,1838,1837,1808
1843335,1831,1835,1803
1843345,1837,1829,1790
1843355,1839,1837,1781
1843365,1840,1834,1786
1843375,1847,1842,1785
1843385,1858,1854,1791
1843395,1866,1858,1793
1843405,1874,1873,1795
1843415,1878,1872,1795
1843425,1883,1892,1803
1843435,1892,1898,1805
1843445,1889,1897,1802
1843455,1894,1901,1808
1843465,1888,1894,1808
1843475,1889,1898,1809
1843485,1875,1891,1820
1843495,1870,1882,1811
1843505,1871,1886,1810
1843515,1859,1872,1810
1843525,1854,1869,1809
1843535,1855,1872,1818
1843545,1841,1859,1808
1843555,1842,1857,1808
1843565,1834,1845,1802
1843575,1840,1846,1803
1843585,1837,1847,1794
1843595,1824,1838,1785
1843605,1823,1827,1783
1843615,1813,1818,1773
1843625,1815,1829,1762
1843635,1814,1829,1761
1843645,1811,1815,1760
1843655,1814,1823,1761
1843665,1808,1814,1754
1843675,1809,1823,1765
1843685,1808,1819,1774
1843695,1811,1811,1773
1843705,1810,1813,1779
1843715,1814,1808,1781
1843725,1813,1822,1789
1843735,1814,1833,1792
1843745,1811,1836,1796
1843755,1814,1840,1805
1843765,1821,1839,1805
1843775,1826,1847,1809
1843785,1826,1843,1808
1843795,1824,1826,1805
1843805,1833,1839,1807
1843815,1831,1831,1808
1843825,1831,1839,1821
1843835,1835,1837,1810
1843845,1834,1834,1818
1843855,1836,1838,1815
1843865,1833,1831,1818
1843875,1837,1854,1831
1843885,1839,1834,1835
1843895,1838,1827,1836
1843905,1840,1837,1838
1843915,1834,1825,1841
1843925,1835,1827,1845
1843935,1840,1829,1850
1843945,1840,1833,1851
1843955,1840,1840,1850
1843965,1840,1837,1851
1843975,1840,1848,1857
1843985,1841,1836,1859
1843995,1840,1837,1857
1844005,1841,1840,1858
1844015,1845,1835,1858
1844025,1852,1833,1863
1844035,1850,1835,1867
1844045,1849,1840,1863
1844055,1847,1846,1872
1844065,1851,1839,1877
1844075,1856,1851,1895
1844085,1867,1859,1907
1844095,1872,1867,1920
1844105,1878,1872,1936
1844115,1885,1882,1951
1844125,1899,1893,1965
1844135,1903,1902,1969
1844145,1905,1904,1973
1844155,1919,1909,1984
1844165,1916,1907,1984
1844175,1917,1919,1984
1844185,1911,1909,1968
1844195,1915,1902,1957
1844205,1918,1906,1943
1844215,1911,1905,1937
1844225,1911,1904,1927
1844235,1905,1890,1909
1844245,1904,1883,1901
1844255,1899,1899,1898
1844265,1895,1877,1888
1844275,1889,1892,1874
1844285,1879,1871,1868
1844295,1874,1856,1853
1844305,1872,1869,1854
1844315,1870,1847,1838
1844325,1865,1855,1839
1844335,1858,1840,1829
1844345,1861,1833,1823
1844355,1856,1846,1824
1844365,1850,1838,1819
1844375,1855,1835,1827
1844385,1851,1843,1829
1844395,1852,1837,1831
1844405,1853,1857,1840
1844415,1853,1841,1839
1844425,1856,1851,1844
1844435,1859,1840,1842
1844445,1858,1844,1845
1844455,1861,1846,1851
1844465,1859,1847,1854
1844475,1862,1851,1852
1844485,1863,1840,1855
1844495,1866,1843,1845
1844505,1860,1846,1841
1844515,1858,1840,1840
1844525,1863,1842,1835
1844535,1861,1835,1824
1844545,1863,1833,1822
1844555,1857,1840,1823
1844565,1863,1830,1811
1844575,1860,1830,1813
1844585,1856,1823,1809
1844595,1856,1830,1810
1844605,1856,1829,1813
1844615,1854,1821,1813
1844625,1856,1830,1814
1844635,1856,1808,1808
1844645,1854,1818,1814
1844655,1854,1834,1817
1844665,1856,1821,1815
1844675,1857,1826,1822
1844685,1856,1818,1818
1844695,1855,1821,1823
1844705,1852,1830,1831
1844715,1851,1831,1825
1844725,1853,1831,1835
1844735,1852,1829,1831
1844745,1854,1840,1835
1844755,1856,1837,1839
1844765,1852,1836,1839
1844775,1857,1839,1843
1844785,1854,1835,1847
1844795,1861,1847,1865
1844805,1871,1854,1873
1844815,1872,1851,1889
1844825,1879,1867,1905
1844835,1888,1867,1919
1844845,1903,1878,1933
1844855,1913,1897,1946
1844865,1913,1897,1958
1844875,1921,1909,1968
1844885,1922,1902,1962
1844895,1935,1904,1965
1844905,1930,1919,1961
1844915,1923,1902,1952
1844925,1925,1904,1940
1844935,1920,1884,1927
1844945,1920,1893,1921
1844955,1920,1900,1917
1844965,1904,1894,1903
1844975,1907,1889,1895
1844985,1900,1871,1881
1844995,1897,1872,1874
1845005,1892,1881,1873
1845015,1886,1867,1861
1845025,1881,1857,1857
1845035,1871,1840,1845
1845045,1866,1843,1846
1845055,1863,1851,1841
1845065,1853,1842,1838
1845075,1854,1842,1837
1845085,1843,1842,1837
1845095,1845,1847,1838
1845105,1843,1848,1841
1845115,1840,1837,1841
1845125,1840,1844,1851
1845135,1841,1837,1851
1845145,1841,1842,1857
1845155,1840,1843,1865
1845165,1842,1841,1861
1845175,1847,1847,1863
1845185,1844,1840,1862
1845195,1847,1847,1866
1845205,1846,1851,1869
1845215,1846,1840,1859
1845225,1845,1843,1863
1845235,1848,1846,1856
1845245,1846,1840,1865
1845255,1847,1843,1857
1845265,1841,1839,1853
1845275,1845,1840,1853
1845285,1844,1838,1851
1845295,1851,1851,1854
1845305,1843,1844,1847
1845315,1839,1841,1847
1845325,1843,1843,1849
1845335,1838,1840,1847
1845345,1839,1851,1851
1845355,1836,1837,1850
1845365,1837,1830,1844
1845375,1840,1837,1851
1845385,1837,1835,1849
1845395,1839,1840,1851
1845405,1839,1841,1847
1845415,1835,1841,1847
1845425,1840,1842,1843
1845435,1839,1840,1845
1845445,1841,1840,1845
1845455,1840,1834,1845
1845465,1840,1829,1847
1845475,1840,1840,1848
1845485,1840,1840,1847
1845495,1846,1851,1857
1845505,1846,1843,1859
1845515,1846,1851,1872
1845525,1857,1860,1888
1845535,1867,1866,1902
1845545,1874,1882,1921
1845555,1884,1895,1931
1845565,1889,1889,1947
1845575,1901,1904,1941
1845585,1904,1904,1968
1845595,1909,1927,1965
1845605,1908,1915,1946
1845615,1911,1920,1946
1845625,1910,1917,1937
1845635,1908,1904,1922
1845645,1916,1904,1911
1845655,1902,1875,1898
1845665,1901,1888,1904
1845675,1900,1904,1873
1845685,1891,1886,1859
1845695,1885,1902,1858
1845705,1883,1886,1827
1845715,1878,1870,1833
1845725,1875,1869,1819
1845735,1868,1868,1802
1845745,1869,1859,1799
1845755,1863,1840,1782
1845765,1858,1856,1747
1845775,1858,1843,1776
1845785,1850,1836,1763
1845795,1847,1836,1766
1845805,1841,1840,1776
1845815,1840,1842,1777
1845825,1846,1845,1786
1845835,1844,1852,1808
1845845,1843,1856,1815
1845855,1842,1853,1817
1845865,1846,1854,1838
1845875,1850,1871,1822
1845885,1851,1840,1845
1845895,1851,1853,1849
1845905,1846,1847,1859
1845915,1851,1854,1877
1845925,1854,1872,1867
1845935,1849,1856,1867
1845945,1852,1851,1872
1845955,1849,1841,1866
1845965,1855,1850,1869
1845975,1854,1856,1867
1845985,1853,1842,1861
1845995,1852,1841,1866
1846005,1855,1839,1860
1846015,1851,1845,1862
1846025,1855,1850,1858
1846035,1853,1842,1858
1846045,1851,1849,1858
1846055,1850,1843,1839
1846065,1850,1847,1847
1846075,1856,1852,1859
1846085,1852,1840,1851
1846095,1856,1843,1851
1846105,1854,1834,1846
1846115,1856,1840,1842
1846125,1853,1850,1845
1846135,1852,1842,1846
1846145,1854,1846,1845
1846155,1851,1843,1841
1846165,1853,1845,1840
1846175,1859,1853,1855
1846185,1856,1849,1855
1846195,1870,1850,1866
1846205,1872,1856,1873
1846215,1882,1871,1891
1846225,1891,1877,1909
1846235,1898,1885,1924
1846245,1907,1898,1934
1846255,1917,1900,1936
1846265,1921,1911,1941
1846275,1934,1914,1950
1846285,1934,1918,1937
1846295,1939,1921,1936
1846305,1936,1913,1927
1846315,1937,1909,1929
1846325,1936,1919,1920
1846335,1933,1904,1904
1846345,1927,1895,1894
1846355,1919,1877,1885
1846365,1920,1884,1878
1846375,1916,1890,1874
1846385,1904,1872,1868
1846395,1905,1878,1861
1846405,1901,1856,1851
1846415,1915,1870,1850
1846425,1877,1861,1848
1846435,1872,1855,1842
1846445,1872,1845,1837
1846455,1868,1838,1823
1846465,1855,1840,1833
1846475,1858,1840,1827
1846485,1849,1835,1821
1846495,1845,1835,1824
1846505,1848,1831,1824
1846515,1854,1840,1827
1846525,1872,1840,1831
1846535,1857,1845,1830
1846545,1854,1845,1838
1846555,1852,1837,1839
1846565,1855,1846,1840
1846575,1853,1837,1841
1846585,1855,1841,1840
1846595,1861,1841,1840
1846605,1855,1840,1838
1846615,1867,1847,1844
1846625,1862,1851,1840
1846635,1857,1841,1833
1846645,1861,1845,1838
1846655,1852,1840,1840
1846665,1855,1845,1839
1846675,1858,1846,1839
1846685,1819,1835,1836
1846695,1839,1839,1830
1846705,1845,1839,1836
1846715,1853,1847,1842
1846725,1851,1842,1837
1846735,1862,1847,1828
1846745,1847,1847,1834
1846755,1855,1840,1833
1846765,1853,1850,1834
1846775,1850,1841,1838
1846785,1841,1837,1837
1846795,1851,1843,1837
1846805,1858,1838,1835
1846815,1850,1855,1840
1846825,1854,1840,1838
1846835,1851,1838,1837
1846845,1857,1842,1839
1846855,1851,1840,1838
1846865,1852,1847,1840
1846875,1855,1843,1842
1846885,1847,1843,1844
1846895,1858,1847,1855
1846905,1863,1856,1870
1846915,1871,1872,1891
1846925,1885,1872,1908
1846935,1899,1883,1926
1846945,1909,1904,1949
1846955,1921,1909,1962
1846965,1936,1917,1968
1846975,1938,1918,1974
1846985,1918,1918,1972
1846995,1943,1923,1972
1847005,1946,1923,1968
1847015,1956,1927,1961
1847025,1940,1918,1945
1847035,1937,1907,1926
1847045,1936,1915,1922
1847055,1934,1904,1905
1847065,1929,1904,1888
1847075,1922,1885,1875
1847085,1915,1877,1867
1847095,1916,1875,1854
1847105,1903,1861,1847
1847115,1896,1865,1840
1847125,1884,1855,1830
1847135,1882,1850,1821
1847145,1872,1846,1824
1847155,1868,1842,1812
1847165,1862,1841,1811
1847175,1852,1823,1806
1847185,1847,1825,1808
1847195,1841,1825,1804
1847205,1835,1818,1809
1847215,1835,1822,1814
1847225,1832,1814,1815
1847235,1835,1815,1820
1847245,1833,1839,1835
1847255,1832,1838,1837
1847265,1837,1840,1840
1847275,1838,1839,1841
1847285,1843,1838,1847
1847295,1847,1844,1847
1847305,1843,1839,1847
1847315,1846,1838,1845
1847325,1845,1819,1841
1847335,1847,1835,1842
1847345,1853,1845,1847
1847355,1851,1840,1841
1847365,1857,1843,1843
1847375,1855,1839,1835
1847385,1851,1840,1842
1847395,1857,1841,1842
1847405,1850,1843,1839
1847415,1854,1840,1839
1847425,1851,1834,1834
1847435,1858,1837,1836
1847445,1857,1846,1834
1847455,1853,1839,1838
1847465,1853,1847,1840
1847475,1854,1840,1835
1847485,1851,1840,1841
1847495,1849,1852,1839
1847505,1853,1841,1833
1847515,1850,1846,1838
1847525,1855,1837,1835
1847535,1845,1841,1837
1847545,1855,1850,1840
1847555,1855,1839,1838
1847565,1847,1843,1834
1847575,1851,1838,1840
1847585,1851,1840,1839
1847595,1846,1853,1841
1847605,1846,1841,1843
1847615,1862,1850,1855
1847625,1859,1855,1867
1847635,1873,1857,1885
1847645,1881,1875,1903
1847655,1899,1871,1914
1847665,1913,1887,1932
1847675,1915,1889,1938
1847685,1931,1905,1948
1847695,1936,1909,1955
1847705,1939,1915,1952
1847715,1945,1920,1952
1847725,1938,1908,1945
1847735,1945,1917,1938
1847745,1942,1921,1936
1847755,1939,1907,1923
1847765,1936,1907,1917
1847775,1931,1889,1904
1847785,1926,1897,1894
1847795,1918,1890,1893
1847805,1904,1878,1873
1847815,1904,1875,1866
1847825,1894,1872,1856
1847835,1893,1872,1847
1847845,1878,1863,1845
1847855,1873,1849,1838
1847865,1869,1855,1834
1847875,1858,1840,1823
1847885,1855,1849,1822
1847895,1845,1835,1818
1847905,1840,1830,1814
1847915,1837,1831,1811
1847925,1835,1830,1815
1847935,1840,1831,1823
1847945,1837,1831,1821
1847955,1834,1831,1826
1847965,1838,1839,1835
1847975,1840,1837,1840
1847985,1841,1850,1843
1847995,1840,1842,1842
1848005,1839,1835,1843
1848015,1845,1840,1844
1848025,1840,1840,1843
1848035,1840,1844,1850
1848045,1840,1844,1841
1848055,1841,1841,1843
1848065,1840,1843,1847
1848075,1840,1840,1845
1848085,1839,1843,1850
1848095,1833,1838,1847
1848105,1830,1841,1847
1848115,1835,1840,1845
1848125,1833,1840,1846
1848135,1836,1840,1852
1848145,1839,1840,1846
1848155,1837,1835,1842
1848165,1840,1842,1843
1848175,1840,1838,1841
1848185,1841,1847,1846
1848195,1845,1840,1847
1848205,1840,1840,1839
1848215,1846,1842,1840
1848225,1849,1839,1840
1848235,1849,1843,1837
1848245,1849,1839,1839
1848255,1847,1840,1833
1848265,1855,1846,1838
1848275,1854,1843,1831
1848285,1853,1850,1840
1848295,1856,1840,1840
1848305,1854,1831,1834
1848315,1851,1849,1840
1848325,1856,1840,1840
1848335,1856,1850,1853
1848345,1859,1846,1862
1848355,1867,1853,1871
1848365,1877,1871,1889
1848375,1892,1879,1899
1848385,1914,1893,1919
1848395,1919,1903,1930
1848405,1929,1901,1936
1848415,1939,1904,1949
1848425,1941,1907,1946
1848435,1947,1930,1955
1848445,1943,1915,1948
1848455,1949,1917,1938
1848465,1947,1911,1934
1848475,1940,1905,1924
1848485,1937,1908,1926
1848495,1930,1892,1905
1848505,1925,1894,1904
1848515,1920,1894,1897
1848525,1908,1872,1889
1848535,1907,1872,1877
1848545,1902,1865,1865
1848555,1891,1865,1865
1848565,1881,1859,1858
1848575,1878,1859,1846
1848585,1871,1855,1843
1848595,1860,1841,1839
1848605,1854,1846,1829
1848615,1847,1850,1828
1848625,1847,1833,1822
1848635,1840,1838,1825
1848645,1837,1819,1822
1848655,1840,1826,1828
1848665,1840,1831,1826
1848675,1840,1829,1830
1848685,1842,1840,1839
1848695,1845,1840,1840
1848705,1844,1840,1844
1848715,1849,1846,1849
1848725,1843,1841,1851
1848735,1850,1847,1856
1848745,1849,1835,1855
1848755,1853,1838,1857
1848765,1855,1837,1858
1848775,1851,1840,1855
1848785,1846,1843,1858
1848795,1844,1847,1851
1848805,1850,1841,1856
1848815,1851,1856,1854
1848825,1845,1847,1856
1848835,1849,1850,1855
1848845,1845,1843,1855
1848855,1846,1846,1855
1848865,1847,1839,1853
1848875,1847,1837,1847
1848885,1851,1846,1850
1848895,1847,1842,1845
1848905,1846,1845,1847
1848915,1850,1846,1849
1848925,1847,1841,1845
1848935,1846,1843,1843
1848945,1844,1840,1845
1848955,1843,1838,1840
1848965,1853,1845,1843
1848975,1850,1841,1844
1848985,1851,1841,1844
1848995,1850,1838,1841
1849005,1851,1842,1846
1849015,1857,1851,1849
1849025,1855,1852,1849
1849035,1860,1849,1860
1849045,1859,1850,1865
1849055,1875,1857,1874
1849065,1885,1874,1890
1849075,1895,1875,1903
1849085,1910,1888,1915
1849095,1920,1881,1923
1849105,1936,1903,1934
1849115,1942,1917,1936
1849125,1943,1906,1935
1849135,1950,1913,1933
1849145,1951,1904,1922
1849155,1950,1914,1920
1849165,1946,1906,1911
1849175,1936,1891,1903
1849185,1934,1903,1898
1849195,1924,1893,1884
1849205,1918,1898,1883
1849215,1905,1882,1872
1849225,1898,1868,1868
1849235,1890,1872,1862
1849245,1879,1858,1851
1849255,1876,1866,1855
1849265,1865,1851,1841
1849275,1857,1840,1835
1849285,1855,1843,1826
1849295,1842,1840,1825
1849305,1840,1841,1824
1849315,1835,1832,1821
1849325,1834,1824,1824
1849335,1837,1837,1830
1849345,1835,1834,1823
1849355,1839,1840,1834
1849365,1837,1840,1831
1849375,1839,1835,1829
1849385,1840,1839,1840
1849395,1850,1840,1833
1849405,1841,1841,1840
1849415,1844,1846,1840
1849425,1845,1837,1840
1849435,1846,1847,1842
1849445,1845,1841,1849
1849455,1853,1851,1855
1849465,1846,1846,1851
1849475,1845,1847,1846
1849485,1846,1843,1853
1849495,1847,1840,1847
1849505,1845,1845,1849
1849515,1850,1842,1851
1849525,1845,1843,1853
1849535,1847,1843,1855
1849545,1844,1847,1851
1849555,1847,1854,1856
1849565,1848,1843,1853
1849575,1847,1853,1846
1849585,1855,1847,1852
1849595,1855,1843,1841
1849605,1855,1843,1843
1849615,1856,1843,1839
1849625,1854,1838,1837
1849635,1855,1850,1838
1849645,1859,1843,1840
1849655,1858,1845,1845
1849665,1846,1840,1840
1849675,1846,1841,1840
1849685,1855,1847,1840
1849695,1853,1840,1845
1849705,1855,1853,1850
1849715,1856,1846,1851
1849725,1853,1839,1858
1849735,1856,1855,1867
1849745,1857,1845,1873
1849755,1872,1865,1888
1849765,1870,1856,1899
1849775,1878,1867,1904
1849785,1895,1881,1924
1849795,1907,1885,1934
1849805,1917,1904,1947
1849815,1926,1903,1953
1849825,1936,1904,1950
1849835,1939,1922,1949
1849845,1938,1914,1947
1849855,1945,1915,1941
1849865,1937,1903,1934
1849875,1933,1902,1921
1849885,1932,1895,1919
1849895,1922,1895,1908
1849905,1918,1903,1906
1849915,1907,1894,1902
1849925,1904,1887,1893
1849935,1898,1892,1889
1849945,1891,1872,1879
1849955,1883,1872,1883
1849965,1873,1870,1872
1849975,1867,1858,1870
1849985,1870,1862,1862
1849995,1863,1854,1859
1850005,1862,1851,1851
1850015,1851,1842,1843
1850025,1850,1846,1841
1850035,1848,1850,1836
1850045,1840,1841,1832
1850055,1840,1840,1830
1850065,1837,1830,1834
1850075,1840,1831,1834
1850085,1840,1839,1839
1850095,1839,1835,1839
1850105,1840,1842,1840
1850115,1844,1835,1840
1850125,1844,1840,1850
1850135,1843,1841,1851
1850145,1840,1846,1845
1850155,1846,1850,1846
1850165,1846,1838,1847
1850175,1847,1847,1850
1850185,1846,1854,1846
1850195,1847,1840,1843
1850205,1850,1842,1843
1850215,1847,1840,1840
1850225,1849,1840,1839
1850235,1847,1844,1839
1850245,1850,1841,1831
1850255,1849,1845,1831
1850265,1846,1840,1839
1850275,1851,1838,1835
1850285,1852,1839,1834
1850295,1849,1834,1831
1850305,1855,1840,1839
1850315,1853,1834,1840
1850325,1852,1837,1837
1850335,1851,1847,1840
1850345,1856,1840,1839
1850355,1858,1842,1839
1850365,1854,1839,1840
1850375,1857,1849,1839
1850385,1857,1852,1840
1850395,1860,1842,1839
1850405,1854,1840,1840
1850415,1853,1830,1835
1850425,1856,1845,1840
1850435,1858,1853,1840
1850445,1853,1840,1840
1850455,1854,1843,1847
1850465,1856,1839,1844
1850475,1863,1852,1857
1850485,1872,1856,1859
1850495,1873,1856,1881
1850505,1889,1871,1889
1850515,1904,1877,1904
1850525,1917,1887,1919
1850535,1927,1904,1935
1850545,1935,1903,1936
1850555,1941,1913,1941
1850565,1941,1913,1937
1850575,1947,1921,1936
1850585,1952,1921,1930
1850595,1943,1913,1921
1850605,1941,1913,1918
1850615,1935,1903,1903
1850625,1933,1904,1904
1850635,1925,1889,1891
1850645,1919,1883,1875
1850655,1909,1889,1872
1850665,1898,1875,1867
1850675,1900,1875,1867
1850685,1885,1869,1851
1850695,1879,1858,1845
1850705,1874,1853,1840
1850715,1866,1842,1831
1850725,1862,1853,1827
1850735,1855,1842,1825
1850745,1849,1835,1815
1850755,1840,1835,1815
1850765,1836,1831,1813
1850775,1834,1840,1818
1850785,1835,1831,1814
1850795,1831,1824,1818
1850805,1829,1828,1818
1850815,1835,1826,1821
1850825,1839,1828,1831
1850835,1839,1833,1826
1850845,1840,1825,1827
1850855,1841,1838,1838
1850865,1841,1839,1837
1850875,1845,1839,1840
1850885,1841,1840,1840
1850895,1840,1837,1840
1850905,1845,1840,1840
1850915,1845,1833,1837
1850925,1845,1835,1839
1850935,1846,1831,1835
1850945,1842,1830,1838
1850955,1843,1837,1839
1850965,1840,1837,1840
1850975,1840,1842,1841
1850985,1840,1839,1845
1850995,1835,1838,1845
1851005,1840,1842,1852
1851015,1838,1839,1856
1851025,1840,1843,1863
1851035,1841,1842,1859
1851045,1841,1840,1861
1851055,1846,1847,1867
1851065,1843,1844,1868
1851075,1850,1855,1871
1851085,1843,1845,1869
1851095,1843,1840,1860
1851105,1851,1850,1865
1851115,1850,1845,1857
1851125,1856,1859,1857
1851135,1853,1852,1854
1851145,1850,1845,1851
1851155,1856,1853,1849
1851165,1857,1842,1844
1851175,1858,1845,1846
1851185,1857,1840,1841
1851195,1854,1843,1840
1851205,1856,1851,1849
1851215,1868,1851,1853
1851225,1873,1858,1869
1851235,1882,1858,1872
1851245,1895,1874,1887
1851255,1909,1897,1905
1851265,1921,1889,1908
1851275,1933,1904,1921
1851285,1936,1900,1931
1851295,1942,1907,1929
1851305,1953,1911,1930
1851315,1947,1906,1921
1851325,1946,1914,1919
1851335,1943,1897,1908
1851345,1935,1902,1904
1851355,1932,1905,1898
1851365,1924,1895,1887
1851375,1916,1889,1875
1851385,1907,1875,1871
1851395,1901,1871,1866
1851405,1891,1875,1858
1851415,1879,1859,1852
1851425,1874,1858,1851
1851435,1867,1853,1840
1851445,1862,1843,1840
1851455,1851,1843,1834
1851465,1841,1848,1837
1851475,1841,1845,1838
1851485,1834,1840,1828
1851495,1825,1826,1835
1851505,1827,1846,1839
1851515,1825,1826,1838
1851525,1830,1834,1840
1851535,1824,1834,1840
1851545,1835,1839,1839
1851555,1837,1843,1840
1851565,1835,1838,1840
1851575,1840,1847,1842
1851585,1843,1841,1843
1851595,1843,1852,1845
1851605,1847,1843,1844
1851615,1843,1840,1843
1851625,1849,1840,1842
1851635,1844,1835,1835
1851645,1849,1840,1839
1851655,1849,1843,1838
1851665,1847,1840,1829
1851675,1844,1840,1829
1851685,1841,1840,1823
1851695,1846,1840,1818
1851705,1842,1842,1823
1851715,1845,1839,1813
1851725,1842,1840,1815
1851735,1840,1826,1808
1851745,1840,1838,1813
1851755,1840,1840,1820
1851765,1840,1835,1808
1851775,1839,1842,1811
1851785,1831,1829,1809
1851795,1839,1841,1813
1851805,1839,1845,1810
1851815,1834,1840,1808
1851825,1831,1843,1811
1851835,1833,1831,1808
1851845,1831,1841,1811
1851855,1831,1841,1814
1851865,1829,1841,1811
1851875,1831,1842,1819
1851885,1827,1843,1814
1851895,1835,1846,1821
1851905,1833,1853,1823
1851915,1831,1839,1818
1851925,1835,1842,1818
1851935,1840,1842,1821
1851945,1840,1849,1830
1851955,1847,1847,1838
1851965,1852,1855,1850
1851975,1865,1871,1866
1851985,1872,1873,1882
1851995,1889,1890,1903
1852005,1901,1898,1911
1852015,1907,1893,1919
1852025,1920,1906,1935
1852035,1924,1903,1931
1852045,1926,1918,1931
1852055,1924,1914,1931
1852065,1920,1911,1920
1852075,1915,1921,1919
1852085,1908,1897,1890
1852095,1904,1904,1889
1852105,1894,1895,1891
1852115,1885,1887,1872
1852125,1887,1875,1869
1852135,1872,1873,1859
1852145,1872,1872,1856
1852155,1867,1872,1841
1852165,1859,1851,1840
1852175,1855,1856,1839
1852185,1850,1845,1818
1852195,1843,1850,1826
1852205,1840,1837,1808
1852215,1839,1840,1820
1852225,1831,1824,1814
1852235,1832,1827,1815
1852245,1835,1831,1806
1852255,1837,1831,1825
1852265,1838,1822,1807
1852275,1840,1834,1817
1852285,1840,1835,1834
1852295,1840,1843,1834
1852305,1844,1838,1841
1852315,1838,1840,1841
1852325,1843,1838,1849
1852335,1841,1826,1838
1852345,1850,1862,1847
1852355,1842,1847,1823
1852365,1847,1847,1828
1852375,1849,1847,1853
1852385,1847,1823,1841
1852395,1847,1835,1843
1852405,1843,1841,1840
1852415,1840,1840,1840
1852425,1840,1847,1826
1852435,1840,1839,1835
1852445,1843,1842,1831
1852455,1839,1834,1839
1852465,1840,1829,1817
1852475,1840,1838,1841
1852485,1840,1835,1842
1852495,1840,1843,1853
1852505,1840,1838,1872
1852515,1839,1830,1830
1852525,1843,1843,1845
1852535,1840,1827,1841
1852545,1842,1850,1852
1852555,1843,1837,1851
1852565,1842,1849,1843
1852575,1847,1846,1847
1852585,1848,1842,1851
1852595,1847,1846,1855
1852605,1843,1831,1854
1852615,1844,1840,1856
1852625,1843,1842,1859
1852635,1851,1840,1858
1852645,1851,1843,1858
1852655,1845,1835,1858
1852665,1850,1841,1858
1852675,1853,1847,1861
1852685,1853,1851,1861
1852695,1861,1854,1875
1852705,1861,1850,1891
1852715,1872,1855,1903
1852725,1888,1879,1915
1852735,1894,1878,1934
1852745,1904,1895,1941
1852755,1917,1898,1953
1852765,1924,1904,1956
1852775,1933,1911,1965
1852785,1932,1909,1962
1852795,1937,1918,1956
1852805,1936,1909,1935
1852815,1932,1910,1936
1852825,1931,1904,1929
1852835,1919,1895,1913
1852845,1918,1890,1904
1852855,1930,1879,1887
1852865,1935,1872,1879
1852875,1903,1877,1867
1852885,1895,1871,1861
1852895,1890,1860,1857
1852905,1867,1863,1843
1852915,1871,1855,1840
1852925,1870,1851,1838
1852935,1847,1841,1826
1852945,1853,1840,1824
1852955,1847,1830,1827
1852965,1842,1826,1815
1852975,1847,1835,1827
1852985,1841,1837,1823
1852995,1840,1838,1829
1853005,1840,1839,1833
1853015,1840,1835,1836
1853025,1843,1838,1833
1853035,1850,1837,1839
1853045,1860,1847,1847
1853055,1856,1839,1841
1853065,1856,1843,1851
1853075,1875,1857,1850
1853085,1855,1845,1851
1853095,1859,1851,1854
1853105,1857,1840,1843
1853115,1862,1855,1845
1853125,1834,1854,1840
1853135,1853,1853,1840
1853145,1855,1847,1839
1853155,1855,1830,1833
1853165,1842,1855,1830
1853175,1840,1846,1825
1853185,1840,1842,1824
1853195,1863,1846,1823
1853205,1856,1833,1808
1853215,1840,1845,1809
1853225,1850,1837,1815
1853235,1836,1834,1813
1853245,1846,1841,1813
1853255,1847,1837,1813
1853265,1846,1836,1823
1853275,1834,1840,1830
1853285,1841,1836,1823
1853295,1847,1847,1835
1853305,1846,1842,1834
1853315,1850,1843,1841
1853325,1853,1856,1845
1853335,1849,1835,1843
1853345,1845,1840,1846
1853355,1850,1840,1845
1853365,1854,1850,1856
1853375,1856,1842,1854
1853385,1848,1840,1851
1853395,1853,1841,1857
1853405,1860,1845,1866
1853415,1857,1866,1877
1853425,1868,1859,1893
1853435,1870,1852,1901
1853445,1888,1877,1925
1853455,1898,1878,1938
1853465,1907,1899,1953
1853475,1921,1899,1968
1853485,1927,1891,1968
1853495,1937,1914,1969
1853505,1938,1904,1968
1853515,1945,1919,1967
1853525,1943,1914,1956
1853535,1943,1914,1942
1853545,1938,1909,1936
1853555,1932,1906,1920
1853565,1935,1904,1910
1853575,1924,1897,1905
1853585,1918,1877,1893
1853595,1909,1879,1882
1853605,1904,1871,1873
1853615,1899,1863,1873
1853625,1895,1872,1866
1853635,1883,1872,1859
1853645,1875,1865,1857
1853655,1872,1855,1851
1853665,1867,1858,1851
1853675,1867,1854,1841
1853685,1855,1840,1841
1853695,1853,1841,1837
1853705,1850,1831,1838
1853715,1851,1841,1839
1853725,1843,1837,1840
1853735,1842,1841,1845
1853745,1846,1843,1843
1853755,1840,1841,1845
1853765,1851,1856,1849
1853775,1850,1842,1845
1853785,1842,1841,1847
1853795,1853,1846,1856
1853805,1853,1843,1852
1853815,1859,1857,1855
1853825,1852,1840,1856
1853835,1854,1839,1849
1853845,1853,1845,1846
1853855,1852,1842,1842
1853865,1854,1851,1849
1853875,1853,1840,1840
1853885,1844,1843,1840
1853895,1842,1849,1841
1853905,1851,1840,1841
1853915,1845,1841,1840
1853925,1855,1838,1840
1853935,1850,1840,1840
1853945,1852,1842,1841
1853955,1852,1840,1840
1853965,1855,1841,1842
1853975,1849,1835,1840
1853985,1849,1840,1841
1853995,1853,1851,1841
1854005,1847,1839,1840
1854015,1855,1843,1840
1854025,1850,1840,1844
1854035,1853,1837,1845
1854045,1850,1843,1847
1854055,1851,1840,1844
1854065,1852,1845,1845
1854075,1849,1837,1843
1854085,1853,1839,1840
1854095,1854,1846,1843
1854105,1851,1841,1847
1854115,1859,1849,1851
1854125,1856,1842,1856
1854135,1866,1851,1872
1854145,1872,1865,1884
1854155,1882,1871,1898
1854165,1891,1882,1909
1854175,1901,1885,1922
1854185,1914,1893,1936
1854195,1923,1902,1939
1854205,1931,1904,1939
1854215,1938,1911,1945
1854225,1938,1904,1936
1854235,1939,1911,1936
1854245,1939,1921,1933
1854255,1935,1904,1917
1854265,1933,1904,1908
1854275,1923,1894,1895
1854285,1915,1889,1893
1854295,1910,1898,1889
1854305,1904,1877,1872
1854315,1900,1883,1870
1854325,1890,1863,1862
1854335,1887,1865,1854
1854345,1877,1869,1851
1854355,1872,1855,1842
1854365,1868,1857,1840
1854375,1856,1838,1834
1854385,1855,1849,1831
1854395,1849,1852,1835
1854405,1843,1836,1820
1854415,1845,1839,1830
1854425,1839,1824,1824
1854435,1849,1838,1825
1854445,1842,1840,1827
1854455,1843,1835,1839
1854465,1844,1840,1840
1854475,1841,1831,1840
1854485,1849,1846,1843
1854495,1841,1850,1850
1854505,1844,1840,1843
1854515,1849,1846,1849
1854525,1845,1839,1845
1854535,1852,1852,1847
1854545,1852,1842,1843
1854555,1856,1840,1845
1854565,1853,1851,1845
1854575,1850,1842,1840
1854585,1846,1845,1842
1854595,1851,1841,1841
1854605,1852,1840,1840
1854615,1850,1844,1841
1854625,1846,1842,1839
1854635,1853,1845,1840
1854645,1850,1841,1840
1854655,1852,1840,1836
1854665,1849,1840,1840
1854675,1854,1840,1838
1854685,1854,1842,1840
1854695,1847,1840,1841
1854705,1851,1840,1840
1854715,1853,1840,1840
1854725,1852,1843,1840
1854735,1855,1859,1840
1854745,1854,1840,1843
1854755,1853,1846,1843
1854765,1854,1847,1841
1854775,1854,1845,1840
1854785,1853,1853,1846
1854795,1855,1842,1841
1854805,1851,1839,1842
1854815,1846,1843,1842
1854825,1850,1840,1840
1854835,1856,1847,1841
1854845,1856,1859,1854
1854855,1856,1856,1856
1854865,1872,1861,1872
1854875,1879,1873,1885
1854885,1890,1872,1903
1854895,1904,1883,1915
1854905,1911,1889,1923
1854915,1921,1902,1935
1854925,1929,1904,1935
1854935,1936,1909,1936
1854945,1938,1910,1935
1854955,1936,1910,1926
1854965,1935,1915,1922
1854975,1931,1906,1913
1854985,1926,1904,1906
1854995,1921,1895,1898
1855005,1914,1884,1887
1855015,1911,1886,1877
1855025,1904,1873,1873
1855035,1899,1880,1870
1855045,1888,1867,1856
1855055,1881,1857,1854
1855065,1874,1867,1853
1855075,1869,1859,1840
1855085,1866,1862,1840
1855095,1859,1859,1840
1855105,1850,1847,1826
1855115,1850,1856,1829
1855125,1842,1837,1827
1855135,1846,1843,1835
1855145,1842,1830,1828
1855155,1840,1835,1828
1855165,1840,1840,1838
1855175,1840,1840,1831
1855185,1840,1851,1839
1855195,1840,1840,1837
1855205,1840,1839,1840
1855215,1845,1841,1850
1855225,1841,1840,1840
1855235,1845,1843,1851
1855245,1843,1841,1844
1855255,1849,1840,1844
1855265,1849,1856,1850
1855275,1851,1841,1845
1855285,1843,1843,1840
1855295,1847,1841,1841
1855305,1852,1845,1837
1855315,1851,1849,1839
1855325,1847,1841,1836
1855335,1845,1845,1839
1855345,1845,1831,1831
1855355,1849,1840,1837
1855365,1846,1842,1840
1855375,1844,1838,1835
1855385,1843,1840,1837
1855395,1841,1840,1826
1855405,1847,1840,1840
1855415,1844,1840,1838
1855425,1841,1831,1837
1855435,1845,1837,1834
1855445,1841,1829,1833
1855455,1846,1835,1837
1855465,1843,1840,1840
1855475,1840,1838,1836
1855485,1844,1840,1840
1855495,1840,1827,1839
1855505,1843,1834,1841
1855515,1851,1851,1854
1855525,1844,1839,1851
1855535,1852,1840,1854
1855545,1859,1843,1859
1855555,1870,1845,1872
1855565,1879,1863,1887
1855575,1889,1871,1902
1855585,1903,1887,1916
1855595,1904,1883,1920
1855605,1919,1899,1931
1855615,1927,1904,1935
1855625,1929,1904,1933
1855635,1936,1910,1926
1855645,1935,1899,1920
1855655,1934,1910,1916
1855665,1926,1909,1906
1855675,1920,1891,1903
1855685,1913,1893,1891
1855695,1904,1888,1882
1855705,1904,1887,1875
1855715,1899,1887,1873
1855725,1885,1871,1865
1855735,1886,1872,1861
1855745,1872,1856,1851
1855755,1872,1858,1853
1855765,1871,1863,1847
1855775,1866,1844,1837
1855785,1857,1847,1840
1855795,1847,1827,1834
1855805,1847,1842,1835
1855815,1847,1852,1840
1855825,1846,1840,1836
1855835,1848,1845,1841
1855845,1849,1823,1840
1855855,1853,1844,1840
1855865,1851,1841,1849
1855875,1856,1842,1845
1855885,1858,1845,1855
1855895,1856,1841,1844
1855905,1860,1852,1855
1855915,1857,1851,1855
1855925,1858,1838,1857
1855935,1857,1851,1854
1855945,1859,1843,1849
1855955,1859,1857,1855
1855965,1856,1851,1850
1855975,1857,1840,1840
1855985,1855,1846,1842
1855995,1854,1843,1844
1856005,1853,1855,1842
1856015,1848,1842,1845
1856025,1849,1842,1842
1856035,1847,1840,1842
1856045,1848,1840,1840
1856055,1846,1846,1843
1856065,1847,1851,1840
1856075,1847,1833,1840
1856085,1851,1841,1841
1856095,1847,1840,1841
1856105,1851,1849,1845
1856115,1853,1845,1841
1856125,1849,1846,1846
1856135,1849,1841,1846
1856145,1847,1841,1842
1856155,1850,1846,1852
1856165,1847,1841,1840
1856175,1850,1842,1841
1856185,1851,1854,1849
1856195,1853,1849,1851
1856205,1856,1859,1865
1856215,1863,1858,1871
1856225,1872,1855,1872
1856235,1882,1872,1895
1856245,1892,1874,1904
1856255,1904,1887,1920
1856265,1911,1901,1930
1856275,1921,1898,1933
1856285,1931,1906,1939
1856295,1934,1910,1935
1856305,1936,1919,1936
1856315,1936,1918,1930
1856325,1931,1904,1921
1856335,1933,1905,1916
1856345,1922,1895,1905
1856355,1922,1895,1903
1856365,1914,1885,1894
1856375,1904,1872,1886
1856385,1899,1882,1877
1856395,1893,1874,1872
1856405,1889,1882,1872
1856415,1878,1872,1859
1856425,1869,1858,1855
1856435,1869,1862,1851
1856445,1862,1850,1840
1856455,1861,1854,1846
1856465,1849,1840,1839
1856475,1843,1837,1834
1856485,1842,1840,1836
1856495,1839,1834,1833
1856505,1840,1850,1838
1856515,1840,1839,1835
1856525,1838,1835,1839
1856535,1840,1847,1838
1856545,1840,1837,1843
1856555,1842,1838,1843
1856565,1845,1827,1842
1856575,1850,1839,1844
1856585,1846,1840,1850
1856595,1847,1841,1847
1856605,1855,1840,1850
1856615,1855,1840,1842
1856625,1857,1845,1849
1856635,1856,1851,1850
1856645,1853,1843,1845
1856655,1851,1845,1847
1856665,1851,1837,1844
1856675,1853,1843,1845
1856685,1851,1847,1845
1856695,1847,1840,1842
1856705,1847,1849,1846
1856715,1846,1835,1841
1856725,1847,1839,1847
1856735,1847,1847,1843
1856745,1841,1838,1840
1856755,1846,1840,1842
1856765,1840,1836,1839
1856775,1840,1840,1840
1856785,1840,1849,1840
1856795,1839,1839,1835
1856805,1840,1840,1833
1856815,1840,1831,1827
1856825,1838,1840,1830
1856835,1840,1842,1827
1856845,1840,1840,1823
1856855,1840,1840,1819
1856865,1840,1834,1817
1856875,1843,1827,1822
1856885,1850,1840,1823
1856895,1856,1845,1834
1856905,1859,1861,1851
1856915,1868,1870,1866
1856925,1878,1885,1883
1856935,1890,1892,1900
1856945,1902,1898,1904
1856955,1909,1911,1922
1856965,1915,1904,1920
1856975,1923,1910,1929
1856985,1934,1915,1933
1856995,1931,1904,1925
1857005,1925,1917,1927
1857015,1924,1904,1920
1857025,1919,1901,1915
1857035,1920,1910,1907
1857045,1908,1891,1904
1857055,1903,1895,1899
1857065,1898,1887,1889
1857075,1894,1873,1874
1857085,1894,1872,1879
1857095,1881,1871,1871
1857105,1878,1861,1866
1857115,1868,1840,1857
1857125,1867,1858,1857
1857135,1861,1857,1855
1857145,1849,1843,1842
1857155,1842,1844,1841
1857165,1838,1822,1831
1857175,1837,1831,1834
1857185,1838,1830,1835
1857195,1827,1826,1830
1857205,1829,1827,1834
1857215,1829,1827,1834
1857225,1830,1826,1840
1857235,1831,1837,1842
1857245,1827,1840,1841
1857255,1825,1840,1843
1857265,1833,1838,1843
1857275,1837,1846,1849
1857285,1839,1847,1847
1857295,1841,1839,1840
1857305,1842,1846,1847
1857315,1840,1840,1845
1857325,1843,1846,1852
1857335,1845,1840,1845
1857345,1842,1845,1847
1857355,1841,1847,1842
1857365,1843,1840,1842
1857375,1842,1847,1841
1857385,1841,1844,1843
1857395,1840,1844,1840
1857405,1845,1841,1842
1857415,1842,1840,1841
1857425,1843,1856,1847
1857435,1851,1842,1846
1857445,1842,1838,1840
1857455,1844,1846,1851
1857465,1844,1840,1849
1857475,1845,1853,1855
1857485,1843,1851,1846
1857495,1845,1841,1843
1857505,1846,1850,1846
1857515,1846,1845,1850
1857525,1846,1855,1851
1857535,1843,1842,1850
1857545,1843,1841,1840
1857555,1846,1843,1847
1857565,1845,1841,1846
1857575,1846,1854,1850
1857585,1851,1843,1853
1857595,1851,1847,1853
1857605,1855,1859,1867
1857615,1865,1867,1878
1857625,1872,1877,1897
1857635,1879,1881,1906
1857645,1887,1885,1920
1857655,1906,1904,1931
1857665,1907,1903,1936
1857675,1920,1911,1942
1857685,1924,1905,1937
1857695,1919,1910,1933
1857705,1932,1919,1927
1857715,1927,1904,1920
1857725,1934,1907,1920
1857735,1926,1904,1904
1857745,1919,1903,1898
1857755,1915,1902,1889
1857765,1907,1886,1879
1857775,1907,1896,1873
1857785,1904,1872,1866
1857795,1891,1868,1860
1857805,1890,1870,1858
1857815,1885,1858,1849
1857825,1883,1865,1846
1857835,1877,1857,1840
1857845,1872,1844,1833
1857855,1870,1855,1834
1857865,1863,1840,1826
1857875,1862,1841,1829
1857885,1855,1837,1821
1857895,1855,1839,1823
1857905,1856,1835,1821
1857915,1854,1834,1822
1857925,1856,1840,1827
1857935,1857,1840,1824
1857945,1857,1840,1829
1857955,1858,1840,1837
1857965,1857,1841,1837
1857975,1863,1842,1840
1857985,1858,1835,1838
1857995,1859,1840,1837
1858005,1858,1840,1843
1858015,1859,1842,1844
1858025,1856,1849,1841
1858035,1859,1840,1840
1858045,1855,1843,1843
1858055,1856,1840,1840
1858065,1856,1840,1840
1858075,1855,1841,1840
1858085,1857,1839,1840
1858095,1855,1837,1834
1858105,1857,1842,1840
1858115,1856,1838,1839
1858125,1862,1842,1841
1858135,1859,1835,1840
1858145,1860,1842,1840
1858155,1860,1857,1842
1858165,1865,1844,1843
1858175,1872,1849,1846
1858185,1872,1843,1843
1858195,1872,1845,1845
1858205,1877,1840,1843
1858215,1879,1840,1845
1858225,1883,1846,1854
1858235,1879,1843,1854
1858245,1883,1855,1857
1858255,1887,1854,1859
1858265,1879,1852,1861
1858275,1885,1855,1863
1858285,1886,1851,1870
1858295,1888,1863,1878
1858305,1894,1866,1884
1858315,1897,1862,1894
1858325,1904,1872,1907
1858335,1909,1879,1914
1858345,1917,1895,1922
1858355,1921,1905,1930
1858365,1929,1900,1936
1858375,1933,1909,1936
1858385,1934,1904,1933
1858395,1936,1910,1927
1858405,1936,1904,1922
1858415,1927,1903,1910
1858425,1929,1899,1906
1858435,1914,1872,1891
1858445,1918,1888,1891
1858455,1905,1883,1886
1858465,1890,1879,1881
1858475,1895,1883,1865
1858485,1886,1869,1854
1858495,1886,1871,1867
1858505,1878,1856,1855
1858515,1872,1850,1861
1858525,1874,1856,1840
1858535,1867,1841,1839
1858545,1863,1843,1840
1858555,1857,1842,1840
1858565,1847,1829,1830
1858575,1847,1867,1835
1858585,1842,1840,1833
1858595,1845,1847,1835
1858605,1844,1836,1814
1858615,1844,1840,1834
1858625,1846,1843,1839
1858635,1846,1835,1815
1858645,1851,1842,1834
1858655,1846,1837,1840
1858665,1843,1841,1842
1858675,1844,1852,1829
1858685,1845,1838,1838
1858695,1846,1862,1853
1858705,1841,1842,1837
1858715,1841,1840,1825
1858725,1847,1847,1839
1858735,1845,1839,1825
1858745,1847,1855,1823
1858755,1847,1840,1818
1858765,1845,1841,1833
1858775,1849,1826,1838
1858785,1846,1837,1842
1858795,1846,1869,1827
1858805,1847,1851,1836
1858815,1851,1845,1833
1858825,1849,1854,1843
1858835,1846,1867,1839
1858845,1851,1855,1853
1858855,1850,1819,1845
1858865,1843,1840,1854
1858875,1847,1847,1855
1858885,1842,1840,1852
1858895,1845,1853,1855
1858905,1845,1847,1855
1858915,1840,1859,1846
1858925,1842,1845,1845
1858935,1846,1840,1840
1858945,1843,1844,1841
1858955,1847,1842,1840
1858965,1847,1842,1835
1858975,1852,1842,1839
1858985,1854,1840,1831
1858995,1856,1849,1829
1859005,1858,1843,1850
1859015,1858,1846,1833
1859025,1873,1855,1851
1859035,1882,1855,1863
1859045,1899,1881,1887
1859055,1913,1877,1901
1859065,1925,1893,1918
1859075,1941,1910,1936
1859085,1947,1909,1955
1859095,1956,1936,1967
1859105,1962,1919,1967
1859115,1961,1910,1965
1859125,1963,1932,1968
1859135,1959,1917,1961
1859145,1958,1917,1955
1859155,1943,1914,1942
1859165,1936,1903,1929
1859175,1935,1907,1920
1859185,1920,1894,1904
1859195,1915,1893,1902
1859205,1904,1875,1885
1859215,1897,1873,1874
1859225,1893,1885,1872
1859235,1886,1866,1855
1859245,1878,1858,1854
1859255,1872,1856,1840
1859265,1866,1847,1839
1859275,1861,1849,1834
1859285,1855,1842,1831
1859295,1855,1842,1823
1859305,1846,1828,1823
1859315,1840,1834,1824
1859325,1840,1837,1825
1859335,1839,1831,1826
1859345,1835,1835,1827
1859355,1831,1824,1827
1859365,1833,1840,1838
1859375,1826,1847,1840
1859385,1836,1839,1840
1859395,1829,1834,1840
1859405,1845,1838,1840
1859415,1835,1840,1843
1859425,1829,1847,1842
1859435,1831,1835,1845
1859445,1835,1844,1845
1859455,1838,1837,1839
1859465,1837,1841,1841
1859475,1840,1850,1840
1859485,1838,1845,1833
1859495,1840,1847,1841
1859505,1837,1839,1835
1859515,1835,1841,1833
1859525,1839,1840,1839
1859535,1833,1834,1833
1859545,1834,1841,1834
1859555,1835,1835,1836
1859565,1835,1836,1831
1859575,1840,1842,1831
1859585,1827,1840,1835
1859595,1845,1840,1832
1859605,1835,1838,1831
1859615,1843,1840,1833
1859625,1825,1835,1830
1859635,1812,1831,1826
1859645,1829,1839,1829
1859655,1822,1821,1821
1859665,1822,1825,1819
1859675,1840,1836,1830
1859685,1825,1830,1821
1859695,1818,1833,1825
1859705,1840,1827,1824
1859715,1840,1834,1826
1859725,1857,1837,1826
1859735,1840,1827,1827
1859745,1850,1840,1839
1859755,1854,1823,1840
1859765,1855,1849,1860
1859775,1871,1862,1875
1859785,1883,1871,1887
1859795,1897,1889,1902
1859805,1906,1889,1909
1859815,1920,1916,1929
1859825,1926,1913,1936
1859835,1929,1907,1933
1859845,1934,1916,1933
1859855,1934,1906,1924
1859865,1923,1907,1923
1859875,1922,1904,1914
1859885,1923,1902,1904
1859895,1917,1903,1898
1859905,1904,1886,1890
1859915,1875,1881,1881
1859925,1891,1879,1871
1859935,1884,1865,1863
1859945,1872,1859,1861
1859955,1865,1851,1855
1859965,1866,1861,1847
1859975,1856,1845,1842
1859985,1853,1840,1837
1859995,1843,1840,1835
1860005,1839,1840,1823
1860015,1833,1844,1823
1860025,1835,1840,1819
1860035,1833,1827,1813
1860045,1831,1825,1812
1860055,1827,1829,1819
1860065,1831,1840,1827
1860075,1838,1825,1825
1860085,1837,1829,1824
1860095,1838,1837,1833
1860105,1842,1832,1837
1860115,1840,1842,1840
1860125,1850,1842,1840
1860135,1844,1842,1837
1860145,1846,1843,1842
1860155,1851,1846,1839
1860165,1851,1850,1845
1860175,1851,1844,1841
1860185,1850,1842,1840
1860195,1849,1842,1840
1860205,1852,1841,1839
1860215,1849,1849,1840
1860225,1849,1842,1840
1860235,1846,1841,1838
1860245,1848,1844,1829
1860255,1847,1839,1831
1860265,1845,1841,1839
1860275,1847,1840,1834
1860285,1840,1829,1829
1860295,1841,1842,1837
1860305,1842,1839,1834
1860315,1849,1851,1838
1860325,1842,1840,1839
1860335,1843,1843,1840
1860345,1847,1840,1840
1860355,1842,1840,1839
1860365,1851,1846,1839
1860375,1847,1833,1840
1860385,1843,1840,1840
1860395,1847,1840,1841
1860405,1847,1840,1840
1860415,1845,1857,1845
1860425,1842,1840,1841
1860435,1843,1841,1840
1860445,1846,1846,1843
1860455,1846,1839,1841
1860465,1847,1840,1843
1860475,1853,1840,1843
1860485,1854,1843,1846
1860495,1855,1852,1855
1860505,1861,1852,1870
1860515,1871,1866,1886
1860525,1877,1874,1903
1860535,1890,1876,1917
1860545,1904,1902,1931
1860555,1911,1904,1939
1860565,1922,1906,1950
1860575,1927,1907,1946
1860585,1935,1913,1943
1860595,1936,1915,1943
1860605,1937,1910,1936
1860615,1935,1913,1932
1860625,1932,1895,1921
1860635,1920,1901,1905
1860645,1921,1901,1904
1860655,1906,1891,1894
1860665,1904,1885,1885
1860675,1899,1869,1871
1860685,1902,1872,1866
1860695,1891,1867,1859
1860705,1879,1856,1853
1860715,1875,1855,1850
1860725,1867,1842,1840
1860735,1857,1840,1834
1860745,1855,1844,1837
1860755,1847,1839,1828
1860765,1842,1838,1831
1860775,1838,1838,1824
1860785,1840,1832,1821
1860795,1835,1837,1827
1860805,1834,1831,1825
1860815,1836,1834,1830
1860825,1837,1824,1827
1860835,1838,1829,1835
1860845,1840,1846,1840
1860855,1839,1837,1840
1860865,1845,1841,1842
1860875,1840,1840,1843
1860885,1842,1843,1840
1860895,1847,1845,1841
1860905,1842,1840,1841
1860915,1846,1843,1842
1860925,1843,1833,1839
1860935,1850,1839,1839
1860945,1845,1840,1844
1860955,1842,1833,1845
1860965,1846,1840,1842
1860975,1841,1825,1839
1860985,1840,1840,1839
1860995,1843,1856,1841
1861005,1844,1840,1839
1861015,1843,1845,1840
1861025,1843,1834,1840
1861035,1845,1850,1843
1861045,1846,1840,1846
1861055,1846,1826,1843
1861065,1847,1842,1844
1861075,1845,1823,1840
1861085,1847,1841,1847
1861095,1846,1843,1843
1861105,1847,1840,1841
1861115,1850,1847,1843
1861125,1851,1844,1840
1861135,1851,1852,1843
1861145,1856,1855,1846
1861155,1854,1833,1846
1861165,1855,1847,1845
1861175,1851,1840,1843
1861185,1853,1843,1846
1861195,1854,1839,1846
1861205,1851,1840,1849
1861215,1853,1851,1850
1861225,1853,1842,1853
1861235,1859,1861,1861
1861245,1867,1859,1872
1861255,1875,1868,1883
1861265,1885,1882,1904
1861275,1898,1886,1914
1861285,1911,1904,1936
1861295,1921,1907,1939
1861305,1927,1905,1941
1861315,1936,1919,1951
1861325,1936,1917,1948
1861335,1938,1935,1946
1861345,1936,1929,1934
1861355,1936,1911,1923
1861365,1930,1911,1911
1861375,1924,1901,1903
1861385,1914,1904,1895
1861395,1907,1893,1885
1861405,1904,1878,1873
1861415,1902,1873,1869
1861425,1892,1867,1862
1861435,1888,1875,1858
1861445,1879,1861,1845
1861455,1872,1856,1840
1861465,1867,1855,1838
1861475,1859,1841,1826
1861485,1853,1840,1827
1861495,1845,1830,1822
1861505,1846,1830,1823
1861515,1840,1833,1827
1861525,1840,1834,1830
1861535,1839,1840,1835
1861545,1840,1835,1837
1861555,1835,1830,1838
1861565,1843,1842,1843
1861575,1845,1841,1847
1861585,1851,1843,1850
1861595,1851,1842,1854
1861605,1858,1849,1854
1861615,1863,1854,1858
1861625,1866,1851,1857
1861635,1872,1858,1859
1861645,1872,1859,1861
1861655,1869,1857,1855
1861665,1872,1861,1858
1861675,1872,1856,1858
1861685,1872,1867,1855
1861695,1870,1847,1855
1861705,1863,1847,1847
1861715,1865,1847,1852
1861725,1857,1845,1851
1861735,1857,1861,1857
1861745,1854,1842,1848
1861755,1849,1840,1847
1861765,1846,1841,1841
1861775,1845,1842,1846
1861785,1841,1840,1845
1861795,1840,1838,1837
1861805,1840,1838,1841
1861815,1839,1840,1835
1861825,1836,1836,1838
1861835,1839,1838,1838
1861845,1833,1829,1837
1861855,1827,1837,1835
1861865,1831,1840,1833
1861875,1831,1829,1833
1861885,1840,1843,1840
1861895,1839,1843,1840
1861905,1841,1843,1845
1861915,1854,1853,1857
1861925,1863,1847,1870
1861935,1872,1865,1888
1861945,1895,1865,1901
1861955,1904,1883,1919
1861965,1920,1903,1930
1861975,1940,1907,1936
1861985,1955,1917,1953
1861995,1968,1911,1949
1862005,1979,1917,1951
1862015,1983,1920,1946
1862025,1983,1911,1936
1862035,1981,1911,1930
1862045,1975,1902,1913
1862055,1967,1904,1909
1862065,1959,1898,1904
1862075,1949,1886,1887
1862085,1939,1890,1883
1862095,1930,1866,1871
1862105,1919,1872,1863
1862115,1910,1868,1861
1862125,1901,1852,1850
1862135,1886,1850,1846
1862145,1875,1843,1842
1862155,1863,1836,1839
1862165,1853,1836,1838
