tree
version=v4
num_class=1
num_tree_per_iteration=1
label_index=0
max_feature_idx=12
objective=regression
feature_names=0 1 2 3 4 5 6 7 8 9 10 11 12
feature_infos=[0.090410133295075842:6.8968950904205553] [-0.068507933588624503:1.2064130194116607] [0.010332950631458115:0.38656716417910453] [0.0039757271395689797:1.0703075957313246] [0.011580566362073635:0.24715009499683344] [0.016929417830647792:0.61532432888844857] [-2.3439929859240212:1.9629031303739544] [0.09205156012693913:6.8512135201174615] [0.092248962896284342:6.8515269844648889] [0.12574836282739199:0.55806851129007862] [-0.012511153363373256:0.31371550635143941] [0.010270840110676145:84.437770369180711] [0.0025324642634762811:0.39431116825626644]
tree_sizes=511 529 530 527 402 513 512 401 496 401 481 497 482 481 497 527 500 514 527 509 513 499 479 482 497 531 400 530 531 533 515 499 513 497 499 401 398 497 402 516 512 512 511 512 518 496 502 517 502 495 513 499 484 501 503 401 418 402 418 418 484 479 496 405 403 486 487 486 484 517 517 484 517 496 496 402 401 400 511 515 406 401 405 420 406 530 510 513 512 510 522 517 480 520 520 530 406 405 405 407 515 515 499 400 496 485 484 501 484 404 512 532 422 513 515 500 499 401 535 402 401 505 504 536 504 499 501 501 501 483 403 404 535 405 405 403 518 402 517 517 516 401 517 517 517 500 404 500 405 405 516 484 517 485 515 517 518 497 518 515 404 517 406 406 406 519 420 518 520 420 518 403 404 402 406 502 517 648 505 519 500 501 502 401 501 499 504 505 499 518 500 499 405 515 403 404 403 405 406 404 515 519 517 518 519 518 500 487 518 516 405 405 405 405 404 484 485 484 484 501 320 322 321 322 322 323 323 323 322 323 432 433 431 433 432 435 436 436 435 431 416 419 417 420 417 435 417 435 435 434 428 432 433 434 434 321 321 321 321 321 435 434 435 435 432 415 436 436 435 416 452 436 436 452 454 417 418 417 418 418 420 420 417 420 417 419 418 420 421 417 338 338 337 338 338 419 413 420 437 420 322 337 324 338 324 340 339 340 340 340 404 422 420 421 405 421 423 423 423 421 438 421 422 420 422 423 422 421 422 422 422 422 421 420 424 424 424 423 423 425 438 438 437 438 437 324 324 324 323 324 423 422 423 421 422 325 326 326 326 325 440 439 441 438 438 420 421 421 434 435 407 421 424 424 424 419 420 326 437 421 326 326 434 434 325 325 323 325 324 323 326 326 325 326 326 438 326 437 437 437 422 440 421 440 440 438 441 325 324 325 424 426 426 424 426 436 437 423 436 437 422 327 422 326 327 437 441 441 323 324 440 441 439 438 409 327 340 326 327 327 426 424 405 426 425 439 440 440 440 438 440 440 442 439 439 438 438 437 323 437 435 440 438 435 436 419 437 420 438 421 421 421 421 422 424 421 325 325 326 326 407 406 408 408 406 422 438 441 422 438 420 421 422 420 420 323 324 437 436 438 423 441 405 404 404 436 439 436 437 438 326 441 325 324 438 436 437 435 438 438 438 409 435 426 422 405 405 422 440 405 439 420 423 422 422 421 326 326 404 406 325 441 327 327 325 323 320 456 323 322 424 421 421 401 422 442 427 441 441 441 324 323 324 323 324 324 325 426 324 325 422 423 422 426 423 419 441 419 419 419 441 441 440 438 434 423 424 423 324 424 326 325 325 326 437 420 440 325 422 440 422 422 422 421 420 325 458 459 459 459 424 421 420 422 421 453 325 326 453 453 325 440 327 326 327 327 327 326 327 327 423 440 438 424 437 439 421 423 423 327 425 439 439 438 423 440 440 441 440 424 442 442 441 442 440 327 327 435 436 327 453 456 439 452 438 455 457 455 455 458 326 327 437 441 443 422 422 422 422 436 327 327 327 327 327 325 325 325 324 325 410 410 437 410 410 443 442 442 443 443 324 325 419 420 421 423 410 440 411 438 442 404 442 404 422 326 439 326 454 324 422 436 423 422 422 423 423 437 422 438 323 324 325 325 325 440 325 323 441 435 438 426 423 437 437 433 443 442 443 441 441 440 441 441 403 329 328 437 440 327 405 423 437 423 435 442 442 409 425 424 425 421 427 427 427 325 324 437 325 324 425 428 425 428 425 404 406 424 424 405 325 325 324 325 323 422 439 421 421 421 420 420 436 421 421 459 437 459 458 455 424 425 426 425 426 323 325 326 325 325 321 322 435 323 439 441 440 427 440 436 428 427 428 428 329 325 325 426 425 325 441 440 438 439 441 418 425 421 420 428 441 442 437 442 324 428 429 429 427 429 324 327 327 325 438 441 440 442 406 442 425 328 328 427 426 439 439 439 438 439 325 327 438 439 435 422 438 436 439 423 423 422 423 424 423 425 438 441 422 425 422 442 424 423 442 404 424 400 425 423 326 327 428 425 326 422 435 421 432 434 423 425 423 424 423 425 440 425 440 422 426 408 325 426 425 426 424 440 426 428 425 419 408 425 419 427 421 428 425 410 407 408 409 424 409 417 408 405 418 404 426 423 424 425 425 323 324 323 324 325 427 442 438 442 441 325 325 325 324 325 324 327 327 324 326 436 439 436 435 433 324 325 324 324 325 440 442 441 440 442 327 326 327 327 440 442 442 441 442 442 323 324 323 322 325 419 417 420 405 406 406 406 422 408 427 425 423 410 410 422 325 325 325 324 325 421 422 421 422 436 450 453 326 452 454 426 325 325 426 325 440 422 422 422 424 441 441 326 440 440 427 428 438 438 426 424 427 424 425 425 423 414 444 424 424 326 326 326 325 326 442 423 442 441 442 406 425 425 424 424 324 324 322 324 323 426 426 426 425 425 418 438 442 440 443 441 442 440 441 442 327 329 325 327 327 426 410 425 424 423 423 446 422 423 446 325 327 324 325 327 324 423 325 437 423 423 423 423 423 422 427 437 438 438 438 458 458 459 326 459 438 440 419 438 437 440 442 442 438 438 443 424 421 442 423 409 409 408 408 409 326 326 326 325 325 442 444 326 443 443 423 424 409 407 410 435 424 423 440 421 440 441 445 425 441 422 425 426 425 426 326 440 441 324 442 325 325 325 325 325 440 326 442 443 328 440 439 440 440 438 444 424 442 441 426 427 438 426 438 427 442 441 429 441 442 437 435 328 437 436 326 439 326 438 439 438 438 426 328 438 422 421 422 423 423 442 440 442 442 442 438 429 441 441 441 328 327 328 328 328 405 427 427 405 428 327 326 327 326 342 437 439 440 427 438 327 327 327 325 327 429 429 429 427 428 426 426 436 439 440 444 444 444 441 444 424 424 427 409 425 326 325 326 326 326 425 443 444 425 423 412 423 443 423 442 424 424 442 421 422 437 436 427 437 436 327 327 327 327 326 327 327 327 429 430 445 441 439 436 445 439 440 440 439 439 325 427 326 326 326 324 324 318 319 324 420 425 438 439 421 325 327 325 325 325 410 420 423 420 422 413 443 429 442 413 422 424 426 426 442 440 440 425 441 327 438 418 434 438 436 441 438 441 424 440 439 440 440 440 443 442 421 420 443 443 441 438 439 442 442 441 439 438 438 439 442 444 452 442 452 322 325 322 323 326 425 427 426 427 425 326 324 442 439 442 424 425 424 425 425 328 328 328 328 328 325 325 325 324 325 439 438 440 324 327 327 326 327 428 327 426 427 426 426 425 439 421 425 440 422 444 326 443 442 325 437 437 328 436 435 409 442 442 410 443 442 425 447 442 443 325 344 344 344 324 328 409 328 426 429 442 442 459 444 442 439 439 438 437 438 444 444 443 443 426 426 421 442 424 441 426 424 426 427 426 423 439 326 423 439 427 412 442 427 428 439 439 438 426 444 409 426 423 406 424 427 412 427 427 411 328 444 442 329 422 426 424 424 426 421 325 324 325 325 325 438 439 441 439 438 428 426 328 328 426 445 440 444 437 439 442 442 442 441 442 438 441 442 441 441 326 325 326 326 326 426 440 426 443 425 440 326 326 325 326 328 328 325 328 326 425 424 426 426 327 326 442 443 443 442 409 409 423 410 424 426 426 441 441 440 426 443 443 430 440 339 342 343 343 342 441 454 324 441 323 427 427 426 426 427 324 324 323 325 324 425 421 426 426 426 326 443 438 439 442 324 323 325 324 325 327 426 327 423 424 326 325 326 326 325 422 326 421 421 426 443 427 444 426 443 425 410 426 413 414 439 421 420 442 425 328 326 326 325 326 456 457 457 457 455

Tree=0
num_leaves=4
num_cat=0
split_feature=1 10 5
split_gain=4460.37 3925.71 326.187
threshold=0.21614625628062903 0.039644494174428724 0.28445152511826571
decision_type=2 2 2
left_child=1 -1 -2
right_child=2 -3 -4
leaf_value=128.73584852438429 128.58553796552619 129.15071803203205 128.71473051196196
leaf_weight=15.999999999999998 15.999999999999998 21 15.999999999999998
leaf_count=16 16 21 16
internal_value=128.822 128.971 128.65
internal_weight=69 37 32
internal_count=69 37 32
is_linear=0
shrinkage=1


Tree=1
num_leaves=4
num_cat=0
split_feature=1 10 5
split_gain=4284.69 3771.06 313.314
threshold=0.21614625628062903 0.039644494174428724 0.28445152511826571
decision_type=2 2 2
left_child=1 -1 -2
right_child=2 -3 -4
leaf_value=-0.090277740111262161 -0.23760076416205173 0.31633641168404525 -0.11097601410765086
leaf_weight=15.999999999999998 15.999999999999998 21 15.999999999999998
leaf_count=16 16 21 16
internal_value=-0.00568538 0.14068 -0.174894
internal_weight=69 37 32
internal_count=69 37 32
is_linear=0
shrinkage=0.02


Tree=2
num_leaves=4
num_cat=0
split_feature=1 10 5
split_gain=4115.92 3622.51 300.949
threshold=0.21614625628062903 0.039644494174428724 0.28445152511826571
decision_type=2 2 2
left_child=1 -1 -2
right_child=2 -3 -4
leaf_value=-0.088483396257672986 -0.23287824935794618 0.31003966695324503 -0.10877027381280935
leaf_weight=15.999999999999998 15.999999999999998 21 15.999999999999998
leaf_count=16 16 21 16
internal_value=-0.00557579 0.137877 -0.171419
internal_weight=69 37 32
internal_count=69 37 32
is_linear=0
shrinkage=0.02


Tree=3
num_leaves=4
num_cat=0
split_feature=1 10 5
split_gain=3953.8 3479.8 289.072
threshold=0.21614625628062903 0.039644494174428724 0.28445152511826571
decision_type=2 2 2
left_child=1 -1 -2
right_child=2 -3 -4
leaf_value=-0.08672471182686943 -0.22824961786684783 0.30386826364349978 -0.10660837854657855
leaf_weight=15.999999999999998 15.999999999999998 21 15.999999999999998
leaf_count=16 16 21 16
internal_value=-0.00546832 0.135131 -0.168013
internal_weight=69 37 32
internal_count=69 37 32
is_linear=0
shrinkage=0.02


Tree=4
num_leaves=3
num_cat=0
split_feature=9 10
split_gain=3657.51 5070.02
threshold=0.42627921509407102 0.074369532155047907
decision_type=2 2
left_child=-1 -2
right_child=1 -3
leaf_value=-0.18123091897930541 0.37805607795715324 -0.072313264835919586
leaf_weight=28 17 24
leaf_count=28 17 24
internal_value=-0.00536295 0.114842
internal_weight=69 41
internal_count=69 41
is_linear=0
shrinkage=0.02


Tree=5
num_leaves=4
num_cat=0
split_feature=9 12 3
split_gain=4293.96 3742.05 469.379
threshold=0.42627921509407102 0.01827156894186464 0.074387947269303215
decision_type=2 2 2
left_child=2 -2 -1
right_child=1 -3 -4
leaf_value=-0.078829792114283079 0.38306318002573636 -0.031126059311495712 -0.23315861227916695
leaf_weight=14.999999999999998 15.999999999999998 19 17
leaf_count=15 16 19 17
internal_value=0.00580428 0.158713 -0.16135
internal_weight=67 35 32
internal_count=67 35 32
is_linear=0
shrinkage=0.02


Tree=6
num_leaves=4
num_cat=0
split_feature=9 4 3
split_gain=4124.96 3615.78 450.86
threshold=0.42627921509407102 0.051931602279924015 0.074387947269303215
decision_type=2 2 2
left_child=2 -2 -1
right_child=1 -3 -4
leaf_value=-0.077263644152129732 0.37609056074426778 -0.031047171026234222 -0.22852270494427596
leaf_weight=14.999999999999998 15.999999999999998 19 17
leaf_count=15 16 19 17
internal_value=0.0056876 0.155557 -0.158144
internal_weight=67 35 32
internal_count=67 35 32
is_linear=0
shrinkage=0.02


Tree=7
num_leaves=3
num_cat=0
split_feature=1 12
split_gain=2373.56 726.605
threshold=0.13691995699073359 0.053284301760603649
decision_type=2 2
left_child=-1 -2
right_child=1 -3
leaf_value=0.19421886376685496 0.005316910974058022 -0.15017624171781335
leaf_weight=19 25 23
leaf_count=19 25 23
internal_value=0.00557323 -0.069306
internal_weight=67 48
internal_count=67 48
is_linear=0
shrinkage=0.02


Tree=8
num_leaves=4
num_cat=0
split_feature=9 2 0
split_gain=3944.71 4086.59 429.48
threshold=0.42627921509407102 0.093057440072365466 0.38709439995424183
decision_type=2 2 2
left_child=2 -2 -1
right_child=1 -3 -4
leaf_value=-0.23261081378191514 0.36121470262332511 -0.070175323545584201 -0.084969693903337445
leaf_weight=14.999999999999998 18 17 17
leaf_count=15 18 17 17
internal_value=0.00546323 0.152022 -0.154748
internal_weight=67 35 32
internal_count=67 35 32
is_linear=0
shrinkage=0.02


Tree=9
num_leaves=3
num_cat=0
split_feature=1 12
split_gain=2205.2 687.902
threshold=0.13691995699073359 0.053284301760603649
decision_type=2 2
left_child=-1 -2
right_child=1 -3
leaf_value=0.18718423958224151 0.0057820917256324886 -0.14550957129631209
leaf_weight=19 25 23
leaf_count=19 25 23
internal_value=0.00535139 -0.066822
internal_weight=67 48
internal_count=67 48
is_linear=0
shrinkage=0.02


Tree=10
num_leaves=4
num_cat=0
split_feature=12 9 2
split_gain=3537.62 3389.01 1330.91
threshold=0.03717087232857634 0.44335105378356959 0.12226368159203982
decision_type=2 2 2
left_child=1 -1 -2
right_child=2 -3 -4
leaf_value=-0.05245724708335834 -0.26685346724171388 0.33477477713843073 -0.020211419835275045
leaf_weight=18 17 18 18
leaf_count=18 17 18 18
internal_value=0.00246029 0.141494 -0.140485
internal_weight=71 36 35
internal_count=71 36 35
is_linear=0
shrinkage=0.02


Tree=11
num_leaves=4
num_cat=0
split_feature=1 11 2
split_gain=3006.79 2053.85 500.818
threshold=0.1979930707714829 0.21445328700298041 0.11778606965174132
decision_type=2 2 2
left_child=1 -1 -2
right_child=2 -3 -4
leaf_value=0.26391182481946041 -0.21429710776169106 -0.034475974757768951 -0.060088786130452015
leaf_weight=20 15.999999999999998 17 18
leaf_count=20 16 17 18
internal_value=0.00240926 0.127037 -0.133132
internal_weight=71 37 34
internal_count=71 37 34
is_linear=0
shrinkage=0.02


Tree=12
num_leaves=4
num_cat=0
split_feature=12 9 4
split_gain=3356.05 3216.99 708.634
threshold=0.03717087232857634 0.44335105378356959 0.089104767936306936
decision_type=2 2 2
left_child=1 -1 -2
right_child=2 -3 -4
leaf_value=-0.051184554959529012 -0.22913945166688215 0.32608989275621442 -0.048830916828872084
leaf_weight=18 17 18 18
leaf_count=18 17 18 18
internal_value=0.00235812 0.137778 -0.13687
internal_weight=71 36 35
internal_count=71 36 35
is_linear=0
shrinkage=0.02


Tree=13
num_leaves=4
num_cat=0
split_feature=12 9 2
split_gain=3223.9 3090.32 1242.43
threshold=0.03717087232857634 0.44335105378356959 0.12226368159203982
decision_type=2 2 2
left_child=1 -1 -2
right_child=2 -3 -4
leaf_value=-0.050166523674328022 -0.25624388713585705 0.31960412273090844 -0.017948462844553571
leaf_weight=18 17 18 18
leaf_count=18 17 18 18
internal_value=0.00230918 0.135037 -0.134149
internal_weight=71 36 35
internal_count=71 36 35
is_linear=0
shrinkage=0.02


Tree=14
num_leaves=4
num_cat=0
split_feature=1 10 2
split_gain=2764.03 1925.46 455.54
threshold=0.1979930707714829 0.046921419248687216 0.11778606965174132
decision_type=2 2 2
left_child=1 -1 -2
right_child=2 -3 -4
leaf_value=-0.034620738371073843 -0.20510580544978937 0.25428213719704851 -0.058015632985046549
leaf_weight=17 15.999999999999998 20 18
leaf_count=17 16 20 18
internal_value=0.00226118 0.121754 -0.127692
internal_weight=71 37 34
internal_count=71 37 34
is_linear=0
shrinkage=0.02


Tree=15
num_leaves=4
num_cat=0
split_feature=1 10 0
split_gain=3371 2617.61 177.043
threshold=0.23577729837013608 0.036751591371994345 0.46870113174578848
decision_type=2 2 2
left_child=1 -1 -2
right_child=2 -3 -4
leaf_value=-0.099029411180129923 -0.10951177729676101 0.22563670355020107 -0.20850818831399578
leaf_weight=14.999999999999998 15.000000000000002 29 14.999999999999998
leaf_count=15 15 29 15
internal_value=0.00354362 0.114936 -0.159605
internal_weight=74 44 30
internal_count=74 44 30
is_linear=0
shrinkage=0.02


Tree=16
num_leaves=4
num_cat=0
split_feature=0 11 11
split_gain=2808.68 1949.94 748.057
threshold=0.40299511013257422 0.053036901670537977 0.26318791092279203
decision_type=2 2 2
left_child=1 -1 -2
right_child=2 -3 -4
leaf_value=-0.049248613215381314 -0.22115492677130891 0.23765181036738603 -0.036037397378057404
leaf_weight=15.999999999999998 17 23 18
leaf_count=16 17 23 18
internal_value=0.00346596 0.120073 -0.126383
internal_weight=74 39 35
internal_count=74 39 35
is_linear=0
shrinkage=0.02


Tree=17
num_leaves=4
num_cat=0
split_feature=10 10 8
split_gain=2702.33 5477.75 980.152
threshold=0.091278145746732806 0.031961152873395314 0.41694250658652043
decision_type=2 2 2
left_child=1 -1 -3
right_child=-2 2 -4
leaf_value=-0.19107953510612075 -0.15570294396903683 0.37134721092830419 0.14126495386591023
leaf_weight=17 27 15.000000000000002 14.999999999999998
leaf_count=17 27 15 15
internal_value=0.00339317 0.0949678 0.257224
internal_weight=74 47 30
internal_count=74 47 30
is_linear=0
shrinkage=0.02


Tree=18
num_leaves=4
num_cat=0
split_feature=1 10 7
split_gain=3109.26 2443.6 59.3445
threshold=0.23577729837013608 0.036751591371994345 0.382227671323561
decision_type=2 2 2
left_child=1 -1 -2
right_child=2 -3 -4
leaf_value=-0.096414197943857971 -0.12305199345216056 0.21727042191626689 -0.18251211079935367
leaf_weight=14.999999999999998 15.000000000000002 29 14.999999999999998
leaf_count=15 15 29 15
internal_value=0.00332924 0.110311 -0.153356
internal_weight=74 44 30
internal_count=74 44 30
is_linear=0
shrinkage=0.02


Tree=19
num_leaves=4
num_cat=0
split_feature=1 0 0
split_gain=2986.74 2443.47 152.356
threshold=0.23577729837013608 0.40299511013257422 0.46870113174578848
decision_type=2 2 2
left_child=1 -1 -2
right_child=2 -3 -4
leaf_value=0.22607786041344219 -0.10378618132989137 -0.079361855802480244 -0.19570711815298
leaf_weight=27 15.000000000000002 17 14.999999999999998
leaf_count=27 15 17 15
internal_value=0.00325605 0.108109 -0.150311
internal_weight=74 44 30
internal_count=74 44 30
is_linear=0
shrinkage=0.02


Tree=20
num_leaves=4
num_cat=0
split_feature=1 9 5
split_gain=1989.53 1861.99 818.202
threshold=0.21614625628062903 0.44335105378356959 0.30372352807311404
decision_type=2 2 2
left_child=1 -1 -2
right_child=2 -3 -4
leaf_value=-0.022346592078920941 -0.20246957950244673 0.23196213188013098 0.0059160892088089565
leaf_weight=22 15.000000000000002 24 14.999999999999998
leaf_count=22 15 24 15
internal_value=0.0279431 0.110508 -0.0985368
internal_weight=76 46 30
internal_count=76 46 30
is_linear=0
shrinkage=0.02


Tree=21
num_leaves=4
num_cat=0
split_feature=10 10 0
split_gain=2328.17 4797.42 885.072
threshold=0.038426321087930405 0.06348886864301409 0.45765450038098415
decision_type=2 2 2
left_child=-1 -2 -3
right_child=1 2 -4
leaf_value=-0.15731230854988099 0.37287000622665667 0.046440607205466111 -0.14883387616928051
leaf_weight=20 17 24 14.999999999999998
leaf_count=20 17 24 15
internal_value=0.0273841 0.0935455 -0.0288024
internal_weight=76 56 39
internal_count=76 56 39
is_linear=0
shrinkage=0.02


Tree=22
num_leaves=4
num_cat=0
split_feature=0 9 1
split_gain=2215.24 2283.71 621.125
threshold=0.42171674283706512 0.44335105378356959 0.1979930707714829
decision_type=2 2 2
left_child=1 -1 -2
right_child=2 -3 -4
leaf_value=-0.021965290325791087 0.00099052841900384905 0.2797101741050606 -0.16508774200503115
leaf_weight=20 17 20 19
leaf_count=20 17 20 19
internal_value=0.0268388 0.129144 -0.086821
internal_weight=76 40 36
internal_count=76 40 36
is_linear=0
shrinkage=0.02


Tree=23
num_leaves=4
num_cat=0
split_feature=10 10 11
split_gain=2209.26 4579.11 771.554
threshold=0.038426321087930405 0.06348886864301409 0.12578688637465815
decision_type=2 2 2
left_child=-1 -2 -3
right_child=1 2 -4
leaf_value=-0.15361217422864923 0.3636504883236355 -0.11524218222395105 0.062266095951589613
leaf_weight=20 17 20 19
leaf_count=20 17 20 19
internal_value=0.026304 0.0907547 -0.0287746
internal_weight=76 56 39
internal_count=76 56 39
is_linear=0
shrinkage=0.02


Tree=24
num_leaves=4
num_cat=0
split_feature=10 10 1
split_gain=2122.24 4398.81 1354.56
threshold=0.038426321087930405 0.06348886864301409 0.1979930707714829
decision_type=2 2 2
left_child=-1 -2 -3
right_child=1 2 -4
leaf_value=-0.15055521622226012 0.35642000293173981 0.12034310445090794 -0.12123778360513235
leaf_weight=20 17 14.999999999999998 24
leaf_count=20 17 15 24
internal_value=0.0257815 0.0889507 -0.0282008
internal_weight=76 56 39
internal_count=76 56 39
is_linear=0
shrinkage=0.02


Tree=25
num_leaves=4
num_cat=0
split_feature=11 10 7
split_gain=1244.34 2547.29 3082.19
threshold=0.11171871867405393 0.036751591371994345 0.54212418157001874
decision_type=2 2 2
left_child=-1 -2 -3
right_child=1 2 -4
leaf_value=-0.14569708005678608 -0.17775802295840121 0.33715737532306184 -0.060811520614979422
leaf_weight=26 15.999999999999998 15.000000000000002 15.999999999999998
leaf_count=26 16 15 16
internal_value=-0.0349465 0.0264566 0.132155
internal_weight=73 47 31
internal_count=73 47 31
is_linear=0
shrinkage=0.02


Tree=26
num_leaves=3
num_cat=0
split_feature=11 9
split_gain=1195.26 1851.15
threshold=0.11171871867405393 0.43616290877617003
decision_type=2 2
left_child=-1 -2
right_child=1 -3
leaf_value=-0.14279429713428249 -0.081948176274880269 0.17134812218632864
leaf_weight=26 27 20
leaf_count=26 27 20
internal_value=-0.0342494 0.02593
internal_weight=73 47
internal_count=73 47
is_linear=0
shrinkage=0.02


Tree=27
num_leaves=4
num_cat=0
split_feature=11 10 8
split_gain=1148.13 2402.53 2943.22
threshold=0.11171871867405393 0.036751591371994345 0.54273334200683998
decision_type=2 2 2
left_child=-1 -2 -3
right_child=1 2 -4
leaf_value=-0.13994935666007557 -0.17291081458145047 0.3283965837402848 -0.060491291921331271
leaf_weight=26 15.999999999999998 15.000000000000002 15.999999999999998
leaf_count=26 16 15 16
internal_value=-0.0335659 0.0254143 0.128067
internal_weight=73 47 31
internal_count=73 47 31
is_linear=0
shrinkage=0.02


Tree=28
num_leaves=4
num_cat=0
split_feature=10 10 6
split_gain=1088.63 1794.58 1370.94
threshold=0.031961152873395314 0.091278145746732806 0.22783889062499049
decision_type=2 2 2
left_child=-1 2 -2
right_child=1 -3 -4
leaf_value=-0.17812616724405228 -0.018054360069843546 -0.11418655185407149 0.24742087389459674
leaf_weight=15.999999999999998 16.000000000000004 26 14.999999999999998
leaf_count=16 16 26 15
internal_value=-0.0328963 0.0080755 0.11072
internal_weight=73 57 31
internal_count=73 57 31
is_linear=0
shrinkage=0.02


Tree=29
num_leaves=4
num_cat=0
split_feature=10 10 6
split_gain=1045.81 1723.87 1317.03
threshold=0.031961152873395314 0.091278145746732806 0.22783889062499049
decision_type=2 2 2
left_child=-1 2 -2
right_child=1 -3 -4
leaf_value=-0.17458577862437466 -0.017695516118351712 -0.11191157508627209 0.24250523068257515
leaf_weight=15.999999999999998 16.000000000000004 26 14.999999999999998
leaf_count=16 16 26 15
internal_value=-0.0322407 0.00791662 0.108519
internal_weight=73 57 31
internal_count=73 57 31
is_linear=0
shrinkage=0.02


Tree=30
num_leaves=4
num_cat=0
split_feature=9 4 10
split_gain=2364.26 4162.42 753.487
threshold=0.42627921509407102 0.051931602279924015 0.031961152873395314
decision_type=2 2 2
left_child=2 -2 -1
right_child=1 -3 -4
leaf_value=-0.2170058280742721 0.37365390136541904 -0.053470070919433191 -0.034853008939074226
leaf_weight=14.999999999999998 14.999999999999998 23 23
leaf_count=15 15 23 23
internal_value=0.00419347 0.115617 -0.107189
internal_weight=76 38 38
internal_count=76 38 38
is_linear=0
shrinkage=0.02


Tree=31
num_leaves=4
num_cat=0
split_feature=1 10 5
split_gain=2632.19 2707.53 662.437
threshold=0.21614625628062903 0.046921419248687216 0.30372352807311404
decision_type=2 2 2
left_child=1 -1 -2
right_child=2 -3 -4
leaf_value=-0.058332221448718011 -0.22543711697028965 0.26254015952753262 -0.047476564801800313
leaf_weight=20 14.999999999999998 22 19
leaf_count=20 15 22 19
internal_value=0.00410982 0.109921 -0.126478
internal_weight=76 42 34
internal_count=76 42 34
is_linear=0
shrinkage=0.02


Tree=32
num_leaves=4
num_cat=0
split_feature=1 2 0
split_gain=2528.53 1077.1 802.084
threshold=0.21614625628062903 0.052238805970149273 0.45765450038098415
decision_type=2 2 2
left_child=1 -1 -2
right_child=2 -3 -4
leaf_value=-0.021235127656356143 -0.031908392669087612 0.18694868240319906 -0.22656451703598779
leaf_weight=15.999999999999998 18 26 15.999999999999998
leaf_count=16 18 26 16
internal_value=0.00402424 0.107731 -0.123966
internal_weight=76 42 34
internal_count=76 42 34
is_linear=0
shrinkage=0.02


Tree=33
num_leaves=4
num_cat=0
split_feature=1 9 0
split_gain=2428.89 1847.01 770.496
threshold=0.21614625628062903 0.44335105378356959 0.45765450038098415
decision_type=2 2 2
left_child=1 -1 -2
right_child=2 -3 -4
leaf_value=-0.020864267877863545 -0.031273749809897403 0.24418693285083298 -0.22206137072225535
leaf_weight=22 18 20 15.999999999999998
leaf_count=22 18 20 16
internal_value=0.00393974 0.105583 -0.121503
internal_weight=76 42 34
internal_count=76 42 34
is_linear=0
shrinkage=0.02


Tree=34
num_leaves=4
num_cat=0
split_feature=1 10 0
split_gain=2333.25 2518.57 740.152
threshold=0.21614625628062903 0.046921419248687216 0.45765450038098415
decision_type=2 2 2
left_child=1 -1 -2
right_child=2 -3 -4
leaf_value=-0.058781963165719708 -0.030651727855534841 0.25068235043486853 -0.21764772696524673
leaf_weight=20 18 22 15.999999999999998
leaf_count=20 18 22 16
internal_value=0.00385858 0.103481 -0.119089
internal_weight=76 42 34
internal_count=76 42 34
is_linear=0
shrinkage=0.02


Tree=35
num_leaves=3
num_cat=0
split_feature=0 11
split_gain=2114.34 2397.36
threshold=0.46870113174578848 0.093839740921334097
decision_type=2 2
left_child=1 -1
right_child=-2 -3
leaf_value=-0.040300215448086679 -0.12422515724704473 0.23643789800190831
leaf_weight=24 24 26
leaf_count=24 24 26
internal_value=0.0297162 0.103748
internal_weight=74 50
internal_count=74 50
is_linear=0
shrinkage=0.02


Tree=36
num_leaves=3
num_cat=0
split_feature=0 11
split_gain=2030.94 2302.81
threshold=0.46870113174578848 0.093839740921334097
decision_type=2 2
left_child=1 -1
right_child=-2 -3
leaf_value=-0.039497557438260784 -0.121750965573481 0.23172725627359383
leaf_weight=24 24 26
leaf_count=24 24 26
internal_value=0.0291227 0.10168
internal_weight=74 50
internal_count=74 50
is_linear=0
shrinkage=0.02


Tree=37
num_leaves=4
num_cat=0
split_feature=12 9 2
split_gain=1990.36 2620.39 1097.34
threshold=0.03717087232857634 0.44335105378356959 0.12226368159203982
decision_type=2 2 2
left_child=1 -1 -2
right_child=2 -3 -4
leaf_value=-0.031688806345949623 -0.19929530682771102 0.30434265949449485 0.020009554867495855
leaf_weight=19 15.999999999999998 18 21
leaf_count=19 16 18 21
internal_value=0.0285411 0.132112 -0.0750526
internal_weight=74 37 37
internal_count=74 37 37
is_linear=0
shrinkage=0.02


Tree=38
num_leaves=3
num_cat=0
split_feature=0 11
split_gain=1929.19 2187.25
threshold=0.46870113174578848 0.093839740921334097
decision_type=2 2
left_child=1 -1
right_child=-2 -3
leaf_value=-0.038896922075896838 -0.11907200597628519 0.22543269732217677
leaf_weight=24 24 26
leaf_count=24 24 26
internal_value=0.0279722 0.0986902
internal_weight=74 50
internal_count=74 50
is_linear=0
shrinkage=0.02


Tree=39
num_leaves=4
num_cat=0
split_feature=1 10 5
split_gain=1881.42 1346.26 628.395
threshold=0.21614625628062903 0.046921419248687216 0.28445152511826571
decision_type=2 2 2
left_child=1 -1 -2
right_child=2 -3 -4
leaf_value=-0.021709144209852867 -0.1725856862749372 0.21470551235547203 -0.00049247309647870979
leaf_weight=15.999999999999998 15.999999999999998 24 18
leaf_count=16 16 24 18
internal_value=0.0274135 0.120271 -0.0818048
internal_weight=74 40 34
internal_count=74 40 34
is_linear=0
shrinkage=0.02


Tree=40
num_leaves=4
num_cat=0
split_feature=9 3 6
split_gain=1749.69 2315.29 945.219
threshold=0.42627921509407102 0.14274952919020717 0.26558248193484441
decision_type=2 2 2
left_child=2 -2 -1
right_child=1 -3 -4
leaf_value=-0.20663958751602673 0.25195271728869295 -0.048105197367976554 0.017294857075672278
leaf_weight=15.000000000000002 21 20 14.999999999999998
leaf_count=15 21 20 15
internal_value=0.0209308 0.105773 -0.0949204
internal_weight=71 41 30
internal_count=71 41 30
is_linear=0
shrinkage=0.02


Tree=41
num_leaves=4
num_cat=0
split_feature=9 3 6
split_gain=1680.75 2224.06 908.052
threshold=0.42627921509407102 0.14274952919020717 0.26558248193484441
decision_type=2 2 2
left_child=2 -2 -1
right_child=1 -3 -4
leaf_value=-0.20253417321388292 0.24693754283737793 -0.047147879636109766 0.016951245061609131
leaf_weight=15.000000000000002 21 20 14.999999999999998
leaf_count=15 21 20 15
internal_value=0.0205121 0.103667 -0.0930333
internal_weight=71 41 30
internal_count=71 41 30
is_linear=0
shrinkage=0.02


Tree=42
num_leaves=4
num_cat=0
split_feature=9 3 6
split_gain=1614.53 2136.43 872.347
threshold=0.42627921509407102 0.14274952919020717 0.26558248193484441
decision_type=2 2 2
left_child=2 -2 -1
right_child=1 -3 -4
leaf_value=-0.19851030564466057 0.2420222036095592 -0.046209614514118397 0.016614463187211399
leaf_weight=15.000000000000002 21 20 14.999999999999998
leaf_count=15 21 20 15
internal_value=0.0201017 0.101602 -0.0911836
internal_weight=71 41 30
internal_count=71 41 30
is_linear=0
shrinkage=0.02


Tree=43
num_leaves=4
num_cat=0
split_feature=9 4 2
split_gain=1550.92 2087.12 753.579
threshold=0.42627921509407102 0.051931602279924015 0.088746607869742214
decision_type=2 2 2
left_child=2 -2 -1
right_child=1 -3 -4
leaf_value=-0.1891196795962504 0.2602559452162263 -0.026664192356588519 0.01083765743584033
leaf_weight=15.000000000000002 18 23 14.999999999999998
leaf_count=15 18 23 15
internal_value=0.0196995 0.0995788 -0.0893707
internal_weight=71 41 30
internal_count=71 41 30
is_linear=0
shrinkage=0.02


Tree=44
num_leaves=4
num_cat=0
split_feature=10 10 11
split_gain=1142.56 2561.28 2911.13
threshold=0.091278145746732806 0.038426321087930405 0.21445328700298041
decision_type=2 2 2
left_child=1 -1 -3
right_child=-2 2 -4
leaf_value=-0.12192712056009393 -0.096297582527259729 0.38201837755986384 -0.0049913242292700354
leaf_weight=17 23 15.000000000000002 15.999999999999998
leaf_count=17 23 15 16
internal_value=0.0193065 0.0748267 0.182833
internal_weight=71 48 31
internal_count=71 48 31
is_linear=0
shrinkage=0.02


Tree=45
num_leaves=4
num_cat=0
split_feature=6 6 5
split_gain=857.437 2208.82 395.594
threshold=0.28698792345916319 0.45527637676598559 0.2380429491046808
decision_type=2 2 2
left_child=2 -2 -1
right_child=1 -3 -4
leaf_value=-0.030189289969591356 0.19157069508709124 -0.10879067823212807 -0.16372271075752209
leaf_weight=20 20 19 15.999999999999998
leaf_count=20 20 19 16
internal_value=-0.0196015 0.0452857 -0.089882
internal_weight=75 39 36
internal_count=75 39 36
is_linear=0
shrinkage=0.02


Tree=46
num_leaves=4
num_cat=0
split_feature=10 10 4
split_gain=904.706 2738.33 286.685
threshold=0.046921419248687216 0.077618726648310377 0.089104767936306936
decision_type=2 2 2
left_child=-1 -2 -3
right_child=1 2 -4
leaf_value=-0.11721551116244251 0.22657553651714848 -0.14451525632908804 -0.024422198352757944
leaf_weight=25 18 14.999999999999998 17
leaf_count=25 18 15 17
internal_value=-0.0192129 0.0298846 -0.081053
internal_weight=75 50 32
internal_count=75 50 32
is_linear=0
shrinkage=0.02


Tree=47
num_leaves=4
num_cat=0
split_feature=10 10 2
split_gain=869.004 2630.54 902.261
threshold=0.046921419248687216 0.077618726648310377 0.12226368159203982
decision_type=2 2 2
left_child=-1 -2 -3
right_child=1 2 -4
leaf_value=-0.11488054313507688 0.22206905760159149 -0.18517367739114701 0.026655551098888699
leaf_weight=25 18 15.999999999999998 15.999999999999998
leaf_count=25 18 16 16
internal_value=-0.0188308 0.0292876 -0.0794437
internal_weight=75 50 32
internal_count=75 50 32
is_linear=0
shrinkage=0.02


Tree=48
num_leaves=4
num_cat=0
split_feature=10 10 4
split_gain=834.734 2526.94 259.505
threshold=0.046921419248687216 0.077618726648310377 0.089104767936306936
decision_type=2 2 2
left_child=-1 -2 -3
right_child=1 2 -4
leaf_value=-0.11259208648803223 0.21765221748562805 -0.13824571516340142 -0.023971096144782166
leaf_weight=25 18 14.999999999999998 17
leaf_count=25 18 15 17
internal_value=-0.018455 0.0287044 -0.0778634
internal_weight=75 50 32
internal_count=75 50 32
is_linear=0
shrinkage=0.02


Tree=49
num_leaves=4
num_cat=0
split_feature=6 6 5
split_gain=768.798 1999.09 391.909
threshold=0.28698792345916319 0.45527637676598559 0.2380429491046808
decision_type=2 2 2
left_child=2 -2 -1
right_child=1 -3 -4
leaf_value=-0.025256374190695843 0.18251962530672253 -0.10322545112427617 -0.1581237486726749
leaf_weight=20 20 19 15.999999999999998
leaf_count=20 20 19 16
internal_value=-0.018088 0.0433514 -0.0846384
internal_weight=75 39 36
internal_count=75 39 36
is_linear=0
shrinkage=0.02


Tree=50
num_leaves=4
num_cat=0
split_feature=1 11 9
split_gain=1605.2 1422.77 715.777
threshold=0.23577729837013608 0.22107909143952442 0.45303247948552128
decision_type=2 2 2
left_child=1 -1 -2
right_child=2 -3 -4
leaf_value=0.16626694693508376 -0.21867029275325744 -0.066402446657254546 -0.023271288650714799
leaf_weight=25 15.000000000000002 18 14.999999999999998
leaf_count=25 15 18 15
internal_value=-0.0093557 0.068896 -0.121439
internal_weight=73 43 30
internal_count=73 43 30
is_linear=0
shrinkage=0.02


Tree=51
num_leaves=4
num_cat=0
split_feature=12 9 6
split_gain=1621.49 1392.5 606.633
threshold=0.03717087232857634 0.42153859817648803 0.40530548040696796
decision_type=2 2 2
left_child=1 -1 -2
right_child=2 -3 -4
leaf_value=-0.056636132542390999 -0.18197519307361223 0.19041537897564223 -0.017470444182903444
leaf_weight=15.999999999999998 19 21 17
leaf_count=16 19 21 17
internal_value=-0.00917302 0.0836637 -0.104611
internal_weight=73 37 36
internal_count=73 37 36
is_linear=0
shrinkage=0.02


Tree=52
num_leaves=4
num_cat=0
split_feature=12 11 6
split_gain=1557.59 701.009 582.713
threshold=0.03717087232857634 0.22107909143952442 0.40530548040696796
decision_type=2 2 2
left_child=1 -1 -2
right_child=2 -3 -4
leaf_value=0.16195822588839934 -0.17835474228983775 -0.012356044545508267 -0.017123075005603811
leaf_weight=20 19 17 17
leaf_count=20 19 17 17
internal_value=-0.0089919 0.0819965 -0.102531
internal_weight=73 37 36
internal_count=73 37 36
is_linear=0
shrinkage=0.02


Tree=53
num_leaves=4
num_cat=0
split_feature=12 10 6
split_gain=1496.23 1537.74 559.736
threshold=0.03717087232857634 0.038426321087930405 0.40530548040696796
decision_type=2 2 2
left_child=1 -1 -2
right_child=2 -3 -4
leaf_value=-0.075402779642319839 -0.17480632487391926 0.18651908688146066 -0.01678262150078489
leaf_weight=14.999999999999998 19 22 17
leaf_count=15 19 22 17
internal_value=-0.00881387 0.0803636 -0.100493
internal_weight=73 37 36
internal_count=73 37 36
is_linear=0
shrinkage=0.02


Tree=54
num_leaves=4
num_cat=0
split_feature=12 10 6
split_gain=1437.25 1477.17 537.664
threshold=0.03717087232857634 0.038426321087930405 0.40530548040696796
decision_type=2 2 2
left_child=1 -1 -2
right_child=2 -3 -4
leaf_value=-0.073904714710665065 -0.17132850082756959 0.18280558315876921 -0.016448929044935438
leaf_weight=14.999999999999998 19 22 17
leaf_count=15 19 22 17
internal_value=-0.00864034 0.0787612 -0.0984945
internal_weight=73 37 36
internal_count=73 37 36
is_linear=0
shrinkage=0.02


Tree=55
num_leaves=3
num_cat=0
split_feature=11 11
split_gain=990.622 1499.1
threshold=0.11171871867405393 0.21445328700298041
decision_type=2 2
left_child=-1 -2
right_child=1 -3
leaf_value=-0.12098492355020214 0.1633320719555984 -0.080934419287971002
leaf_weight=24 20 20
leaf_count=24 20 20
internal_value=-0.0196497 0.0412517
internal_weight=64 40
internal_count=64 40
is_linear=0
shrinkage=0.02


Tree=56
num_leaves=3
num_cat=0
split_feature=10 1
split_gain=652.068 1347.56
threshold=0.038426321087930405 0.21614625628062903
decision_type=2 2
left_child=-1 -2
right_child=1 -3
leaf_value=-0.13418759355481888 0.12734860799271305 -0.08237357509090526
leaf_weight=14.999999999999998 23 26
leaf_count=15 23 26
internal_value=-0.0192579 0.0160856
internal_weight=64 49
internal_count=64 49
is_linear=0
shrinkage=0.02


Tree=57
num_leaves=3
num_cat=0
split_feature=11 11
split_gain=941.662 1441.27
threshold=0.11171871867405393 0.21445328700298041
decision_type=2 2
left_child=-1 -2
right_child=1 -3
leaf_value=-0.11767584762632601 0.16020374549562064 -0.07930483618778969
leaf_weight=24 20 20
leaf_count=24 20 20
internal_value=-0.0188755 0.0405005
internal_weight=64 40
internal_count=64 40
is_linear=0
shrinkage=0.02


Tree=58
num_leaves=3
num_cat=0
split_feature=11 0
split_gain=904.526 1395.21
threshold=0.11171871867405393 0.42171674283706512
decision_type=2 2
left_child=-1 -2
right_child=1 -3
leaf_value=-0.11533209656284063 0.19155363972613354 -0.051743083190158079
leaf_weight=24 14.999999999999998 25
leaf_count=24 15 25
internal_value=-0.0184991 0.0396935
internal_weight=64 40
internal_count=64 40
is_linear=0
shrinkage=0.02


Tree=59
num_leaves=3
num_cat=0
split_feature=10 0
split_gain=647.617 1285.45
threshold=0.038426321087930405 0.45765450038098415
decision_type=2 2
left_child=-1 -2
right_child=1 -3
leaf_value=-0.13266696743617787 0.10205766033880491 -0.10590232968923464
leaf_weight=14.999999999999998 29 20
leaf_count=15 29 20
internal_value=-0.0181284 0.0170925
internal_weight=64 49
internal_count=64 49
is_linear=0
shrinkage=0.02


Tree=60
num_leaves=4
num_cat=0
split_feature=0 11 12
split_gain=1190.21 2386.07 710.465
threshold=0.42171674283706512 0.093839740921334097 0.05989742393878137
decision_type=2 2 2
left_child=1 -1 -2
right_child=2 -3 -4
leaf_value=-0.042846871122929724 -0.14429298061350879 0.27513241031713653 0.033222302107783083
leaf_weight=21 19 17 17
leaf_count=21 19 17 17
internal_value=0.0217382 0.0997033 -0.0605511
internal_weight=74 38 36
internal_count=74 38 36
is_linear=0
shrinkage=0.02


Tree=61
num_leaves=4
num_cat=0
split_feature=0 0 12
split_gain=1143.32 1680.52 682.492
threshold=0.42171674283706512 0.2642892085212713 0.05989742393878137
decision_type=2 2 2
left_child=1 -1 -2
right_child=2 -3 -4
leaf_value=-0.0284169142756296 -0.14142223193383341 0.23736607978357135 0.032561742659897829
leaf_weight=20 19 18 17
leaf_count=20 19 18 17
internal_value=0.0213062 0.0977204 -0.0593451
internal_weight=74 38 36
internal_count=74 38 36
is_linear=0
shrinkage=0.02


Tree=62
num_leaves=4
num_cat=0
split_feature=0 11 4
split_gain=1098.26 2243.24 566.22
threshold=0.42171674283706512 0.093839740921334097 0.07095358726137703
decision_type=2 2 2
left_child=1 -1 -2
right_child=2 -3 -4
leaf_value=-0.042436054894144502 -0.14645815150337929 0.2658749566719546 0.01275059129468244
leaf_weight=21 15.999999999999998 17 20
leaf_count=21 16 17 20
internal_value=0.0208822 0.0957759 -0.0581631
internal_weight=74 38 36
internal_count=74 38 36
is_linear=0
shrinkage=0.02


Tree=63
num_leaves=3
num_cat=0
split_feature=10 10
split_gain=1464.31 2206.27
threshold=0.091278145746732806 0.038426321087930405
decision_type=2 2
left_child=1 -1
right_child=-2 -3
leaf_value=-0.090663603620919561 -0.093330324010068411 0.19565269039258923
leaf_weight=17 28 29
leaf_count=17 28 29
internal_value=0.0204664 0.0898296
internal_weight=74 46
internal_count=74 46
is_linear=0
shrinkage=0.02


Tree=64
num_leaves=3
num_cat=0
split_feature=10 10
split_gain=1406.49 2119.29
threshold=0.091278145746732806 0.038426321087930405
decision_type=2 2
left_child=1 -1
right_child=-2 -3
leaf_value=-0.08886093900914778 -0.09147035992442501 0.19175308801054541
leaf_weight=17 28 29
leaf_count=17 28 29
internal_value=0.0200564 0.0880367
internal_weight=74 46
internal_count=74 46
is_linear=0
shrinkage=0.02


Tree=65
num_leaves=4
num_cat=0
split_feature=10 10 11
split_gain=1599.56 2478.95 622.074
threshold=0.031961152873395314 0.06348886864301409 0.11730266091226493
decision_type=2 2 2
left_child=-1 -2 -3
right_child=1 2 -4
leaf_value=-0.17235627302649426 0.22325258488903679 -0.11532448688783258 0.034737612888284398
leaf_weight=17 21 22 22
leaf_count=17 21 22 22
internal_value=-0.00019041 0.0450025 -0.0403395
internal_weight=82 65 44
internal_count=82 65 44
is_linear=0
shrinkage=0.02


Tree=66
num_leaves=4
num_cat=0
split_feature=10 10 11
split_gain=1536.57 2381.24 597.558
threshold=0.031961152873395314 0.06348886864301409 0.11730266091226493
decision_type=2 2 2
left_child=-1 -2 -3
right_child=1 2 -4
leaf_value=-0.16892930543910692 0.21880869393100105 -0.11302843570709228 0.034046003850876472
leaf_weight=17 21 22 22
leaf_count=17 21 22 22
internal_value=-0.000186838 0.0441068 -0.0395354
internal_weight=82 65 44
internal_count=82 65 44
is_linear=0
shrinkage=0.02


Tree=67
num_leaves=4
num_cat=0
split_feature=10 10 11
split_gain=1476.06 2287.37 574.009
threshold=0.031961152873395314 0.06348886864301409 0.11730266091226493
decision_type=2 2 2
left_child=-1 -2 -3
right_child=1 2 -4
leaf_value=-0.16557047425654897 0.21445326536187628 -0.11077809238865366 0.033368166129513564
leaf_weight=17 21 22 22
leaf_count=17 21 22 22
internal_value=-0.00018332 0.0432289 -0.0387474
internal_weight=82 65 44
internal_count=82 65 44
is_linear=0
shrinkage=0.02


Tree=68
num_leaves=4
num_cat=0
split_feature=10 10 2
split_gain=1417.94 2197.2 417.06
threshold=0.031961152873395314 0.06348886864301409 0.12226368159203982
decision_type=2 2 2
left_child=-1 -2 -3
right_child=1 2 -4
leaf_value=-0.16227843318069191 0.21018452115533476 -0.099368224014523873 0.023499492412239174
leaf_weight=17 21 22 22
leaf_count=17 21 22 22
internal_value=-0.000179863 0.0423686 -0.037975
internal_weight=82 65 44
internal_count=82 65 44
is_linear=0
shrinkage=0.02


Tree=69
num_leaves=4
num_cat=0
split_feature=3 11 2
split_gain=681.854 1195.87 228.117
threshold=0.14274952919020717 0.21445328700298041 0.12226368159203982
decision_type=2 2 2
left_child=1 -1 -2
right_child=2 -3 -4
leaf_value=0.13566606451224578 -0.13089762621368004 -0.055932933894761526 -0.020434894498610339
leaf_weight=27 15.000000000000002 25 14.999999999999998
leaf_count=27 15 25 15
internal_value=-0.00017646 0.0435822 -0.0759841
internal_weight=82 52 30
internal_count=82 52 30
is_linear=0
shrinkage=0.02


Tree=70
num_leaves=4
num_cat=0
split_feature=10 10 10
split_gain=1457.52 2711.75 1370.48
threshold=0.031961152873395314 0.091278145746732806 0.046921419248687216
decision_type=2 2 2
left_child=-1 2 -2
right_child=1 -3 -4
leaf_value=-0.16551330747983314 0.020776325377407451 -0.11331381123819392 0.27370276180665881
leaf_weight=14.999999999999998 14.999999999999998 23 20
leaf_count=15 15 23 20
internal_value=0.00952597 0.0550361 0.165731
internal_weight=73 58 35
internal_count=73 58 35
is_linear=0
shrinkage=0.02


Tree=71
num_leaves=4
num_cat=0
split_feature=3 10 10
split_gain=1486.35 1228.56 1553.73
threshold=0.1974411861417511 0.038426321087930405 0.077618726648310377
decision_type=2 2 2
left_child=1 -1 -3
right_child=-2 2 -4
leaf_value=-0.076649743641279022 -0.15388295757840251 0.23814605617975171 -0.018579562951249684
leaf_weight=18 17 21 17
leaf_count=18 17 21 17
internal_value=0.00933533 0.0591054 0.123495
internal_weight=73 56 38
internal_count=73 56 38
is_linear=0
shrinkage=0.02


Tree=72
num_leaves=4
num_cat=0
split_feature=10 10 11
split_gain=1367.43 2537.88 1833.65
threshold=0.031961152873395314 0.091278145746732806 0.21445328700298041
decision_type=2 2 2
left_child=-1 2 -2
right_child=1 -3 -4
leaf_value=-0.16039523323640129 0.29262292187875477 -0.10963305373728532 0.0022370159551964039
leaf_weight=14.999999999999998 19 23 15.999999999999998
leaf_count=15 19 23 16
internal_value=0.00914668 0.0532287 0.160317
internal_weight=73 58 35
internal_count=73 58 35
is_linear=0
shrinkage=0.02


Tree=73
num_leaves=4
num_cat=0
split_feature=3 9 6
split_gain=1418.38 1026.89 1312.44
threshold=0.1974411861417511 0.40847343064459596 0.23311619582956347
decision_type=2 2 2
left_child=1 -1 -3
right_child=-2 2 -4
leaf_value=-0.044832774075594814 -0.15047808714080274 0.0062285275766026903 0.25835799892496619
leaf_weight=23 17 17 15.999999999999998
leaf_count=23 17 17 16
internal_value=0.00896387 0.0575835 0.128945
internal_weight=73 56 33
internal_count=73 56 33
is_linear=0
shrinkage=0.02


Tree=74
num_leaves=4
num_cat=0
split_feature=3 9 6
split_gain=1362.56 986.481 1260.76
threshold=0.1974411861417511 0.40847343064459596 0.23311619582956347
decision_type=2 2 2
left_child=1 -1 -3
right_child=-2 2 -4
leaf_value=-0.043940000946903639 -0.14748612641591077 0.0061046891324004239 0.25322293334866158
leaf_weight=23 17 17 15.999999999999998
leaf_count=23 17 17 16
internal_value=0.00878595 0.0564397 0.126383
internal_weight=73 56 33
internal_count=73 56 33
is_linear=0
shrinkage=0.02


Tree=75
num_leaves=3
num_cat=0
split_feature=3 11
split_gain=1059.56 2124.66
threshold=0.14274952919020717 0.21445328700298041
decision_type=2 2
left_child=1 -1
right_child=-2 -3
leaf_value=0.21130448990134126 -0.068860591580367989 -0.054553256427054796
leaf_weight=25 29 23
leaf_count=25 29 23
internal_value=0.0264036 0.0840242
internal_weight=77 48
internal_count=77 48
is_linear=0
shrinkage=0.02


Tree=76
num_leaves=3
num_cat=0
split_feature=3 11
split_gain=1017.75 2040.87
threshold=0.14274952919020717 0.21445328700298041
decision_type=2 2
left_child=1 -1
right_child=-2 -3
leaf_value=0.20709523852602893 -0.06748811303007439 -0.053466916724200883
leaf_weight=25 29 23
leaf_count=25 29 23
internal_value=0.0258768 0.0823494
internal_weight=77 48
internal_count=77 48
is_linear=0
shrinkage=0.02


Tree=77
num_leaves=3
num_cat=0
split_feature=3 11
split_gain=977.587 1960.4
threshold=0.14274952919020717 0.21445328700298041
decision_type=2 2
left_child=1 -1
right_child=-2 -3
leaf_value=0.2029698367327808 -0.066142989137942851 -0.052402208398430891
leaf_weight=25 29 23
leaf_count=25 29 23
internal_value=0.0253605 0.0807079
internal_weight=77 48
internal_count=77 48
is_linear=0
shrinkage=0.02


Tree=78
num_leaves=4
num_cat=0
split_feature=11 11 10
split_gain=916.495 1059.83 503.792
threshold=0.24795706244059437 0.1658853786941748 0.074369532155047907
decision_type=2 2 2
left_child=1 2 -1
right_child=-2 -3 -4
leaf_value=0.10579250209378881 -0.083955603185282585 0.2112637442784594 -0.0403926900373512
leaf_weight=14.999999999999998 22 14.999999999999998 25
leaf_count=15 22 15 25
internal_value=0.0248544 0.0684881 0.014504
internal_weight=77 55 40
internal_count=77 55 40
is_linear=0
shrinkage=0.02


Tree=79
num_leaves=4
num_cat=0
split_feature=11 11 10
split_gain=880.414 1018.12 483.961
threshold=0.24795706244059437 0.1658853786941748 0.074369532155047907
decision_type=2 2 2
left_child=1 2 -1
right_child=-2 -3 -4
leaf_value=0.10369066326823458 -0.082284089040971994 0.20706644550854009 -0.039588054843632821
leaf_weight=14.999999999999998 22 14.999999999999998 25
leaf_count=15 22 15 25
internal_value=0.0243618 0.0671284 0.0142162
internal_weight=77 55 40
internal_count=77 55 40
is_linear=0
shrinkage=0.02


Tree=80
num_leaves=3
num_cat=0
split_feature=10 10
split_gain=709.057 1621.46
threshold=0.091278145746732806 0.046921419248687216
decision_type=2 2
left_child=1 -1
right_child=-2 -3
leaf_value=-0.060659305820976644 -0.088671618952895659 0.17214979091920463
leaf_weight=26 23 22
leaf_count=26 23 22
internal_value=0.00237677 0.0461393
internal_weight=71 48
internal_count=71 48
is_linear=0
shrinkage=0.02


Tree=81
num_leaves=3
num_cat=0
split_feature=9 0
split_gain=814.714 1004.86
threshold=0.40847343064459596 0.42171674283706512
decision_type=2 2
left_child=-1 -2
right_child=1 -3
leaf_value=-0.079019628046304496 0.1561161820018461 -0.039099826767546302
leaf_weight=29 21 21
leaf_count=29 21 21
internal_value=0.00232875 0.0585996
internal_weight=71 42
internal_count=71 42
is_linear=0
shrinkage=0.02


Tree=82
num_leaves=3
num_cat=0
split_feature=10 10
split_gain=680.288 1544.38
threshold=0.091278145746732806 0.046921419248687216
decision_type=2 2
left_child=1 -1
right_child=-2 -3
leaf_value=-0.05907987399119527 -0.086899424755212035 0.16812759969029489
leaf_weight=26 23 22
leaf_count=26 23 22
internal_value=0.00228212 0.0451483
internal_weight=71 48
internal_count=71 48
is_linear=0
shrinkage=0.02


Tree=83
num_leaves=3
num_cat=0
split_feature=9 10
split_gain=774.338 1025.24
threshold=0.40847343064459596 0.091278145746732806
decision_type=2 2
left_child=-1 -2
right_child=1 -3
leaf_value=-0.077070229586047409 0.13444127590720226 -0.068521489445467168
leaf_weight=29 26 15.999999999999998
leaf_count=29 26 16
internal_value=0.00223597 0.0570955
internal_weight=71 42
internal_count=71 42
is_linear=0
shrinkage=0.02


Tree=84
num_leaves=3
num_cat=0
split_feature=10 10
split_gain=631.785 1464.34
threshold=0.091278145746732806 0.046921419248687216
decision_type=2 2
left_child=1 -1
right_child=-2 -3
leaf_value=-0.057988082056301307 -0.083752654765075416 0.16325208614314843
leaf_weight=26 23 22
leaf_count=26 23 22
internal_value=0.00218981 0.0435007
internal_weight=71 48
internal_count=71 48
is_linear=0
shrinkage=0.02


Tree=85
num_leaves=4
num_cat=0
split_feature=11 9 4
split_gain=767.164 792.921 1074.02
threshold=0.24795706244059437 0.40847343064459596 0.089104767936306936
decision_type=2 2 2
left_child=1 -1 -3
right_child=-2 2 -4
leaf_value=-0.036506222671603562 -0.063105251902625684 0.24994081654163616 0.014477538146720028
leaf_weight=15.999999999999998 23 16.000000000000004 14.999999999999998
leaf_count=16 23 16 15
internal_value=0.0313149 0.0775989 0.136484
internal_weight=70 47 31
internal_count=70 47 31
is_linear=0
shrinkage=0.02


Tree=86
num_leaves=4
num_cat=0
split_feature=0 0 5
split_gain=938.731 539.195 253.03
threshold=0.42171674283706512 0.2642892085212713 0.20644539107343227
decision_type=2 2 2
left_child=1 -1 -2
right_child=2 -3 -4
leaf_value=0.030392897287126401 0.018736489692830149 0.19005785302345796 -0.087668534440187684
leaf_weight=18 15.999999999999998 15.999999999999998 20
leaf_count=18 16 16 20
internal_value=0.0306928 0.105925 -0.0404011
internal_weight=70 34 36
internal_count=70 34 36
is_linear=0
shrinkage=0.02


Tree=87
num_leaves=4
num_cat=0
split_feature=0 9 5
split_gain=901.775 1346.25 243.069
threshold=0.42171674283706512 0.44335105378356959 0.20644539107343227
decision_type=2 2 2
left_child=1 -1 -2
right_child=2 -3 -4
leaf_value=-0.014842923201250108 0.018364086388060762 0.23670432429876387 -0.085923884187764782
leaf_weight=18 15.999999999999998 15.999999999999998 20
leaf_count=18 16 16 20
internal_value=0.0300838 0.103821 -0.0395958
internal_weight=70 34 36
internal_count=70 34 36
is_linear=0
shrinkage=0.02


Tree=88
num_leaves=4
num_cat=0
split_feature=0 9 5
split_gain=866.249 1293.28 233.501
threshold=0.42171674283706512 0.44335105378356959 0.20644539107343227
decision_type=2 2 2
left_child=1 -1 -2
right_child=2 -3 -4
leaf_value=-0.014547703700829607 0.017999087090818038 0.23199965166379205 -0.084213961677171698
leaf_weight=18 15.999999999999998 15.999999999999998 20
leaf_count=18 16 16 20
internal_value=0.029486 0.101756 -0.0388065
internal_weight=70 34 36
internal_count=70 34 36
is_linear=0
shrinkage=0.02


Tree=89
num_leaves=4
num_cat=0
split_feature=0 9 5
split_gain=832.122 1242.4 224.309
threshold=0.42171674283706512 0.44335105378356959 0.20644539107343227
decision_type=2 2 2
left_child=1 -1 -2
right_child=2 -3 -4
leaf_value=-0.014258354302927934 0.017641340457134363 0.22738846631338877 -0.082538059837189481
leaf_weight=18 15.999999999999998 15.999999999999998 20
leaf_count=18 16 16 20
internal_value=0.0289 0.0997325 -0.0380329
internal_weight=70 34 36
internal_count=70 34 36
is_linear=0
shrinkage=0.02


Tree=90
num_leaves=4
num_cat=0
split_feature=10 10 2
split_gain=959.394 1875.15 190.113
threshold=0.091278145746732806 0.046921419248687216 0.047168006123230029
decision_type=2 2 2
left_child=1 2 -1
right_child=-2 -3 -4
leaf_value=-0.0046276277580008587 -0.099242056325020922 0.18433749925522577 -0.10533323149017941
leaf_weight=15.000000000000002 26 23 14.999999999999998
leaf_count=15 26 23 15
internal_value=1.98431e-05 0.0488472 -0.0552295
internal_weight=79 53 30
internal_count=79 53 30
is_linear=0
shrinkage=0.02


Tree=91
num_leaves=4
num_cat=0
split_feature=10 10 0
split_gain=921.515 1801.28 230.5
threshold=0.091278145746732806 0.046921419248687216 0.3634361952390664
decision_type=2 2 2
left_child=1 2 -1
right_child=-2 -3 -4
leaf_value=-0.10929719023357162 -0.097264821565927681 0.18066670834760129 0.0012560828947863042
leaf_weight=15.000000000000002 26 23 14.999999999999998
leaf_count=15 26 23 15
internal_value=1.72996e-05 0.0478716 -0.0541336
internal_weight=79 53 30
internal_count=79 53 30
is_linear=0
shrinkage=0.02


Tree=92
num_leaves=4
num_cat=0
split_feature=9 9 0
split_gain=803.637 1176.46 1117.99
threshold=0.43616290877617003 0.49508502982650193 0.3634361952390664
decision_type=2 2 2
left_child=2 -2 -1
right_child=1 -3 -4
leaf_value=-0.17970486888569362 0.16579827903006314 -0.050892292183107105 0.034578620675615783
leaf_weight=18 21 19 21
leaf_count=18 21 19 21
internal_value=1.5824e-05 0.0629501 -0.064477
internal_weight=79 40 39
internal_count=79 40 39
is_linear=0
shrinkage=0.02


Tree=93
num_leaves=4
num_cat=0
split_feature=10 10 0
split_gain=877.429 1713.95 209.552
threshold=0.091278145746732806 0.046921419248687216 0.3634361952390664
decision_type=2 2 2
left_child=1 2 -1
right_child=-2 -3 -4
leaf_value=-0.10538591046996462 -0.094911707293713232 0.17624700639155003 2.2732532577009385e-05
leaf_weight=15.000000000000002 26 23 14.999999999999998
leaf_count=15 26 23 15
internal_value=1.42389e-05 0.0467104 -0.0527902
internal_weight=79 53 30
internal_count=79 53 30
is_linear=0
shrinkage=0.02


Tree=94
num_leaves=4
num_cat=0
split_feature=10 10 2
split_gain=842.804 1646.4 193.286
threshold=0.091278145746732806 0.046921419248687216 0.047168006123230029
decision_type=2 2 2
left_child=1 2 -1
right_child=-2 -3 -4
leaf_value=-0.00075075519005983861 -0.093020746779422472 0.17273732085248608 -0.10225421627625725
leaf_weight=15.000000000000002 26 23 14.999999999999998
leaf_count=15 26 23 15
internal_value=1.28388e-05 0.0457789 -0.05174
internal_weight=79 53 30
internal_count=79 53 30
is_linear=0
shrinkage=0.02


Tree=95
num_leaves=4
num_cat=0
split_feature=1 7 9
split_gain=580.407 628.839 203.243
threshold=0.21614625628062903 0.382227671323561 0.41264546717781403
decision_type=2 2 2
left_child=1 -1 -2
right_child=2 -3 -4
leaf_value=-0.055219549599641593 -0.12642154996758265 0.10621523057771422 -0.022111306454961663
leaf_weight=15.999999999999998 15.000000000000002 24 14.999999999999998
leaf_count=16 15 24 15
internal_value=-0.00818964 0.0416148 -0.0745796
internal_weight=70 40 30
internal_count=70 40 30
is_linear=0
shrinkage=0.02


Tree=96
num_leaves=3
num_cat=0
split_feature=10 10
split_gain=728.915 1506.85
threshold=0.091278145746732806 0.038426321087930405
decision_type=2 2
left_child=1 -1
right_child=-2 -3
leaf_value=-0.092385706876584997 -0.091814571688686758 0.14334981804349983
leaf_weight=19 26 25
leaf_count=19 26 25
internal_value=-0.0080292 0.0415309
internal_weight=70 44
internal_count=70 44
is_linear=0
shrinkage=0.02


Tree=97
num_leaves=3
num_cat=0
split_feature=10 10
split_gain=700.142 1447.45
threshold=0.091278145746732806 0.038426321087930405
decision_type=2 2
left_child=1 -1
right_child=-2 -3
leaf_value=-0.09054766440266715 -0.08998531816334561 0.14049424286382606
leaf_weight=19 26 25
leaf_count=19 26 25
internal_value=-0.00786978 0.0407017
internal_weight=70 44
internal_count=70 44
is_linear=0
shrinkage=0.02


Tree=98
num_leaves=3
num_cat=0
split_feature=10 10
split_gain=672.505 1390.4
threshold=0.091278145746732806 0.038426321087930405
decision_type=2 2
left_child=1 -1
right_child=-2 -3
leaf_value=-0.088746192717427355 -0.088192502744353141 0.13769555411965723
leaf_weight=19 26 25
leaf_count=19 26 25
internal_value=-0.00771353 0.039889
internal_weight=70 44
internal_count=70 44
is_linear=0
shrinkage=0.02


Tree=99
num_leaves=3
num_cat=0
split_feature=10 10
split_gain=645.958 1335.59
threshold=0.091278145746732806 0.038426321087930405
decision_type=2 2
left_child=1 -1
right_child=-2 -3
leaf_value=-0.086980566953489297 -0.086435414246672407 0.13495261114194573
leaf_weight=19 26 25
leaf_count=19 26 25
internal_value=-0.00756038 0.0390926
internal_weight=70 44
internal_count=70 44
is_linear=0
shrinkage=0.02


Tree=100
num_leaves=4
num_cat=0
split_feature=11 11 3
split_gain=1146.89 1903.12 620.189
threshold=0.24795706244059437 0.12707669952380804 0.16434400502197111
decision_type=2 2 2
left_child=1 2 -1
right_child=-2 -3 -4
leaf_value=0.060966377695193467 -0.10867199781381688 0.24656057168237913 -0.10753366054215047
leaf_weight=19 21 15.999999999999998 15.999999999999998
leaf_count=19 21 16 16
internal_value=0.0153649 0.0665908 -0.0160921
internal_weight=72 51 35
internal_count=72 51 35
is_linear=0
shrinkage=0.02


Tree=101
num_leaves=4
num_cat=0
split_feature=11 11 3
split_gain=1101.71 1828.23 595.775
threshold=0.24795706244059437 0.12707669952380804 0.16434400502197111
decision_type=2 2 2
left_child=1 2 -1
right_child=-2 -3 -4
leaf_value=0.059753431849454704 -0.10650885785360473 0.24165998826115767 -0.10539634171479977
leaf_weight=19 21 15.999999999999998 15.999999999999998
leaf_count=19 21 16 16
internal_value=0.0150596 0.0652668 -0.0157718
internal_weight=72 51 35
internal_count=72 51 35
is_linear=0
shrinkage=0.02


Tree=102
num_leaves=4
num_cat=0
split_feature=11 11 5
split_gain=1058.31 1756.28 448.286
threshold=0.24795706244059437 0.12707669952380804 0.23159259895921039
decision_type=2 2 2
left_child=1 2 -1
right_child=-2 -3 -4
leaf_value=-0.084837132554027916 -0.10438877476335137 0.23685680845509402 0.05795216807147912
leaf_weight=18 21 15.999999999999998 17
leaf_count=18 21 16 17
internal_value=0.0147604 0.0639692 -0.0154578
internal_weight=72 51 35
internal_count=72 51 35
is_linear=0
shrinkage=0.02


Tree=103
num_leaves=3
num_cat=0
split_feature=3 0
split_gain=1052.45 1082.74
threshold=0.1974411861417511 0.42171674283706512
decision_type=2 2
left_child=1 -1
right_child=-2 -3
leaf_value=0.14949667754648358 -0.10845672748575164 -0.032839501825461824
leaf_weight=27 20 25
leaf_count=27 20 25
internal_value=0.0144675 0.0619019
internal_weight=72 52
internal_count=72 52
is_linear=0
shrinkage=0.02


Tree=104
num_leaves=4
num_cat=0
split_feature=3 11 7
split_gain=1010.95 1386.46 1734.71
threshold=0.1974411861417511 0.24795706244059437 0.3618780908604235
decision_type=2 2 2
left_child=1 2 -1
right_child=-2 -3 -4
leaf_value=0.0083720439641263474 -0.10629838707435191 -0.080903605887903046 0.29571054300725069
leaf_weight=19 20 18 14.999999999999998
leaf_count=19 20 18 15
internal_value=0.0141773 0.0606676 0.135693
internal_weight=72 52 34
internal_count=72 52 34
is_linear=0
shrinkage=0.02


Tree=105
num_leaves=4
num_cat=0
split_feature=10 12 2
split_gain=787.76 1275.05 1172.83
threshold=0.038426321087930405 0.031753720028581199 0.12226368159203982
decision_type=2 2 2
left_child=-1 -2 -3
right_child=1 2 -4
leaf_value=-0.13542867196167951 0.15709952167600219 -0.15045722363684413 0.072419513206035763
leaf_weight=19 17 21 17
leaf_count=19 17 21 17
internal_value=-0.0247579 0.0136139 -0.0507683
internal_weight=74 55 38
internal_count=74 55 38
is_linear=0
shrinkage=0.02


Tree=106
num_leaves=4
num_cat=0
split_feature=10 12 2
split_gain=756.746 1224.82 1126.63
threshold=0.038426321087930405 0.031753720028581199 0.12226368159203982
decision_type=2 2 2
left_child=-1 -2 -3
right_child=1 2 -4
leaf_value=-0.13273427763534465 0.1539759081288388 -0.14746233876847542 0.070979597861306698
leaf_weight=19 17 21 17
leaf_count=19 17 21 17
internal_value=-0.0242637 0.0133445 -0.049756
internal_weight=74 55 38
internal_count=74 55 38
is_linear=0
shrinkage=0.02


Tree=107
num_leaves=4
num_cat=0
split_feature=10 12 11
split_gain=726.954 1176.57 710.35
threshold=0.038426321087930405 0.031753720028581199 0.11171871867405393
decision_type=2 2 2
left_child=-1 -2 -3
right_child=1 2 -4
leaf_value=-0.13009349054066921 0.15091439537137571 -0.1497417916718477 0.024929398670455447
leaf_weight=19 17 15.999999999999998 22
leaf_count=19 17 16 22
internal_value=-0.0237794 0.0130805 -0.0487639
internal_weight=74 55 38
internal_count=74 55 38
is_linear=0
shrinkage=0.02


Tree=108
num_leaves=4
num_cat=0
split_feature=10 12 2
split_gain=698.316 1130.24 1085.4
threshold=0.038426321087930405 0.031753720028581199 0.12226368159203982
decision_type=2 2 2
left_child=-1 -2 -3
right_child=1 2 -4
leaf_value=-0.12750524465950372 0.14791375812731292 -0.14369877358748448 0.07070698552661471
leaf_weight=19 17 21 17
leaf_count=19 17 21 17
internal_value=-0.0233061 0.0128198 -0.0477941
internal_weight=74 55 38
internal_count=74 55 38
is_linear=0
shrinkage=0.02


Tree=109
num_leaves=3
num_cat=0
split_feature=10 0
split_gain=670.824 849.84
threshold=0.038426321087930405 0.42171674283706512
decision_type=2 2
left_child=-1 -2
right_child=1 -3
leaf_value=-0.12496849194871194 0.086895324290822876 -0.070278195786750181
leaf_weight=19 29 26
leaf_count=19 29 26
internal_value=-0.0228408 0.0125661
internal_weight=74 55
internal_count=74 55
is_linear=0
shrinkage=0.02


Tree=110
num_leaves=4
num_cat=0
split_feature=5 5 1
split_gain=863.299 560.04 711.828
threshold=0.10579076670253729 0.35186982142276613 0.1979930707714829
decision_type=2 2 2
left_child=-1 2 -2
right_child=1 -3 -4
leaf_value=0.10428192555509658 -0.025970138032638018 0.032281969600582709 -0.19936375528409336
leaf_weight=14.999999999999998 20 15.999999999999998 18
leaf_count=15 20 16 18
internal_value=-0.0294369 -0.066742 -0.108464
internal_weight=69 54 38
internal_count=69 54 38
is_linear=0
shrinkage=0.02


Tree=111
num_leaves=4
num_cat=0
split_feature=5 5 12
split_gain=829.325 538.007 519.275
threshold=0.10579076670253729 0.35186982142276613 0.03717087232857634
decision_type=2 2 2
left_child=-1 2 -2
right_child=1 -3 -4
leaf_value=0.10221009510242388 -0.042804363755618823 0.031640341222656437 -0.19269243814930412
leaf_weight=14.999999999999998 22 15.999999999999998 15.999999999999998
leaf_count=15 22 16 16
internal_value=-0.0288501 -0.0654143 -0.106308
internal_weight=69 54 38
internal_count=69 54 38
is_linear=0
shrinkage=0.02


Tree=112
num_leaves=3
num_cat=0
split_feature=1 2
split_gain=476.428 469.833
threshold=0.13691995699073359 0.098258706467661702
decision_type=2 2
left_child=-1 -2
right_child=1 -3
leaf_value=0.067031945234500095 -0.12241904124184762 -0.0028436650279461311
leaf_weight=15.999999999999998 24 29
leaf_count=16 24 29
internal_value=-0.0282755 -0.0571572
internal_weight=69 53
internal_count=69 53
is_linear=0
shrinkage=0.02


Tree=113
num_leaves=4
num_cat=0
split_feature=5 5 1
split_gain=794.497 513.787 664.886
threshold=0.10579076670253729 0.35186982142276613 0.1979930707714829
decision_type=2 2 2
left_child=-1 2 -2
right_child=1 -3 -4
leaf_value=0.10056506611653512 -0.023741218486235508 0.031340003709615386 -0.1913139811141715
leaf_weight=14.999999999999998 20 15.999999999999998 18
leaf_count=15 20 16 18
internal_value=-0.0277116 -0.0635011 -0.103464
internal_weight=69 54 38
internal_count=69 54 38
is_linear=0
shrinkage=0.02


Tree=114
num_leaves=4
num_cat=0
split_feature=5 5 1
split_gain=763.232 493.575 638.683
threshold=0.10579076670253729 0.35186982142276613 0.1979930707714829
decision_type=2 2 2
left_child=-1 2 -2
right_child=1 -3 -4
leaf_value=0.098567088108189066 -0.023268757435812876 0.030717096965505463 -0.18750884140394011
leaf_weight=14.999999999999998 20 15.999999999999998 18
leaf_count=15 20 16 18
internal_value=-0.0271592 -0.0622378 -0.101407
internal_weight=69 54 38
internal_count=69 54 38
is_linear=0
shrinkage=0.02


Tree=115
num_leaves=4
num_cat=0
split_feature=9 9 9
split_gain=1024.28 1121.09 408.095
threshold=0.43616290877617003 0.49508502982650193 0.39049649716771156
decision_type=2 2 2
left_child=2 -2 -1
right_child=1 -3 -4
leaf_value=-0.0036427776849091943 0.1980541229526899 -0.038532547161279136 -0.13484220066123245
leaf_weight=20 17 14.999999999999998 18
leaf_count=20 17 15 18
internal_value=0.00406591 0.0873173 -0.0660332
internal_weight=70 32 38
internal_count=70 32 38
is_linear=0
shrinkage=0.02


Tree=116
num_leaves=4
num_cat=0
split_feature=9 9 3
split_gain=983.941 1076.97 439.19
threshold=0.43616290877617003 0.49508502982650193 0.10207156308851227
decision_type=2 2 2
left_child=2 -2 -1
right_child=1 -3 -4
leaf_value=-0.003332326559093891 0.19411620803743773 -0.037767002787811074 -0.13997376135218212
leaf_weight=21 17 14.999999999999998 17
leaf_count=21 17 15 17
internal_value=0.00398348 0.0855796 -0.0647208
internal_weight=70 32 38
internal_count=70 32 38
is_linear=0
shrinkage=0.02


Tree=117
num_leaves=3
num_cat=0
split_feature=5 7
split_gain=920.158 621.988
threshold=0.15945806703181606 0.37378529338236971
decision_type=2 2
left_child=-1 -2
right_child=1 -3
leaf_value=0.1182409177016263 0.037490056672247286 -0.10432773227793467
leaf_weight=20 22 28
leaf_count=20 22 28
internal_value=0.00390247 -0.0419377
internal_weight=70 50
internal_count=70 50
is_linear=0
shrinkage=0.02


Tree=118
num_leaves=4
num_cat=0
split_feature=12 5 4
split_gain=906.919 729.914 518.289
threshold=0.03717087232857634 0.20644539107343227 0.089104767936306936
decision_type=2 2 2
left_child=1 -1 -2
right_child=2 -3 -4
leaf_value=-0.00049797407324383373 -0.16079931688624499 0.17690167351274302 0.0024254889517837429
leaf_weight=24 15.000000000000002 14.999999999999998 15.999999999999998
leaf_count=24 15 15 16
internal_value=0.00382589 0.0679594 -0.076753
internal_weight=70 39 31
internal_count=70 39 31
is_linear=0
shrinkage=0.02


Tree=119
num_leaves=3
num_cat=0
split_feature=5 12
split_gain=887.619 957.647
threshold=0.15945806703181606 0.03717087232857634
decision_type=2 2
left_child=-1 -2
right_child=1 -3
leaf_value=0.11604855122257821 0.053385487696825162 -0.1218802062523761
leaf_weight=20 23 27
leaf_count=20 23 27
internal_value=0.00374932 -0.0412724
internal_weight=70 50
internal_count=70 50
is_linear=0
shrinkage=0.02


Tree=120
num_leaves=3
num_cat=0
split_feature=11 3
split_gain=585.789 670.413
threshold=0.21445328700298041 0.14274952919020717
decision_type=2 2
left_child=1 -1
right_child=-2 -3
leaf_value=0.109553827821496 -0.0836496538104433 -0.043393918202386646
leaf_weight=25 23 21
leaf_count=25 23 21
internal_value=-0.00141994 0.0397438
internal_weight=69 46
internal_count=69 46
is_linear=0
shrinkage=0.02


Tree=121
num_leaves=4
num_cat=0
split_feature=10 12 11
split_gain=1194.62 811.675 441.091
threshold=0.038426321087930405 0.031753720028581199 0.11171871867405393
decision_type=2 2 2
left_child=-1 -2 -3
right_child=1 2 -4
leaf_value=-0.14104337168003314 0.16556746229621933 -0.078827441672832649 0.06281811837991956
leaf_weight=18 15.999999999999998 17 18
leaf_count=18 16 17 18
internal_value=-0.00139204 0.0480371 -0.00595274
internal_weight=69 51 35
internal_count=69 51 35
is_linear=0
shrinkage=0.02


Tree=122
num_leaves=4
num_cat=0
split_feature=10 10 1
split_gain=1147.58 668.699 505.617
threshold=0.038426321087930405 0.06348886864301409 0.29298816260878863
decision_type=2 2 2
left_child=-1 -2 -3
right_child=1 2 -4
leaf_value=-0.13823808756981107 0.14910362717700981 -0.072576649301339197 0.082280920467629332
leaf_weight=18 17 19 14.999999999999998
leaf_count=18 17 19 15
internal_value=-0.00136338 0.0470822 -0.00415754
internal_weight=69 51 34
internal_count=69 51 34
is_linear=0
shrinkage=0.02


Tree=123
num_leaves=4
num_cat=0
split_feature=11 2 11
split_gain=563.409 474.412 312.478
threshold=0.21445328700298041 0.056654228855721404 0.064519881607953286
decision_type=2 2 2
left_child=1 -1 -3
right_child=-2 2 -4
leaf_value=-0.052982920479300796 -0.081979222132530047 0.021768789883726127 0.14894308604941464
leaf_weight=14.999999999999998 23 16.000000000000004 14.999999999999998
leaf_count=15 23 16 15
internal_value=-0.00133494 0.0390342 0.0836501
internal_weight=69 46 31
internal_count=69 46 31
is_linear=0
shrinkage=0.02


Tree=124
num_leaves=4
num_cat=0
split_feature=10 10 1
split_gain=1091.41 642.303 481.619
threshold=0.038426321087930405 0.06348886864301409 0.29298816260878863
decision_type=2 2 2
left_child=-1 -2 -3
right_child=1 2 -4
leaf_value=-0.13478991902335571 0.14592540232061643 -0.071055288614402898 0.080082217304911829
leaf_weight=18 17 19 14.999999999999998
leaf_count=18 17 19 15
internal_value=-0.00130662 0.0459376 -0.00427902
internal_weight=69 51 34
internal_count=69 51 34
is_linear=0
shrinkage=0.02


Tree=125
num_leaves=4
num_cat=0
split_feature=5 11 12
split_gain=1101.16 606.226 570.79
threshold=0.15945806703181606 0.24795706244059437 0.092015894658001737
decision_type=2 2 2
left_child=-1 2 -2
right_child=1 -3 -4
leaf_value=0.16520487415197802 0.10008750212701012 -0.10948542233988726 -0.058022865923295107
leaf_weight=18 21 18 15.999999999999998
leaf_count=18 21 18 16
internal_value=0.0298796 -0.0145918 0.0316894
internal_weight=73 55 37
internal_count=73 55 37
is_linear=0
shrinkage=0.02


Tree=126
num_leaves=4
num_cat=0
split_feature=5 11 12
split_gain=1057.81 582.334 548.311
threshold=0.15945806703181606 0.24795706244059437 0.092015894658001737
decision_type=2 2 2
left_child=-1 2 -2
right_child=1 -3 -4
leaf_value=0.16191902881169187 0.098095231395197144 -0.10730781123124433 -0.056869620743745596
leaf_weight=18 21 18 15.999999999999998
leaf_count=18 21 18 16
internal_value=0.0292842 -0.0143024 0.0310568
internal_weight=73 55 37
internal_count=73 55 37
is_linear=0
shrinkage=0.02


Tree=127
num_leaves=4
num_cat=0
split_feature=5 11 12
split_gain=1016.17 559.384 526.717
threshold=0.15945806703181606 0.24795706244059437 0.092015894658001737
decision_type=2 2 2
left_child=-1 2 -2
right_child=1 -3 -4
leaf_value=0.15869854105111644 0.096142626396287678 -0.10517351261159991 -0.055739291587971744
leaf_weight=18 21 18 15.999999999999998
leaf_count=18 21 18 16
internal_value=0.0287005 -0.0140188 0.0304368
internal_weight=73 55 37
internal_count=73 55 37
is_linear=0
shrinkage=0.02


Tree=128
num_leaves=4
num_cat=0
split_feature=5 11 12
split_gain=976.162 537.338 505.974
threshold=0.15945806703181606 0.24795706244059437 0.092015894658001737
decision_type=2 2 2
left_child=-1 2 -2
right_child=1 -3 -4
leaf_value=0.15554210351975584 0.094228890744430749 -0.10308166376134967 -0.054631428570480818
leaf_weight=18 21 18 15.999999999999998
leaf_count=18 21 18 16
internal_value=0.0281286 -0.0137407 0.0298292
internal_weight=73 55 37
internal_count=73 55 37
is_linear=0
shrinkage=0.02


Tree=129
num_leaves=4
num_cat=0
split_feature=5 9 12
split_gain=937.732 386.638 492.844
threshold=0.15945806703181606 0.42627921509407102 0.053284301760603649
decision_type=2 2 2
left_child=-1 -2 -3
right_child=1 2 -4
leaf_value=0.15244845003054286 -0.08341884722164021 0.099284922312636401 -0.050434938188184772
leaf_weight=18 20 18 17
leaf_count=18 20 18 17
internal_value=0.027568 -0.0134682 0.0265704
internal_weight=73 55 35
internal_count=73 55 35
is_linear=0
shrinkage=0.02


Tree=130
num_leaves=3
num_cat=0
split_feature=3 5
split_gain=555.235 777.045
threshold=0.060756192959582823 0.28445152511826571
decision_type=2 2
left_child=-1 -2
right_child=1 -3
leaf_value=0.10140597991294263 -0.098436196369438594 0.057651474832004536
leaf_weight=19 27 24
leaf_count=19 27 24
internal_value=0.00939563 -0.024975
internal_weight=70 51
internal_count=70 51
is_linear=0
shrinkage=0.02


Tree=131
num_leaves=3
num_cat=0
split_feature=3 5
split_gain=533.348 746.396
threshold=0.060756192959582823 0.28445152511826571
decision_type=2 2
left_child=-1 -2
right_child=1 -3
leaf_value=0.09938847802696428 -0.096474737364427632 0.056503229141235352
leaf_weight=19 27 24
leaf_count=19 27 24
internal_value=0.00920945 -0.0244763
internal_weight=70 51
internal_count=70 51
is_linear=0
shrinkage=0.02


Tree=132
num_leaves=4
num_cat=0
split_feature=11 10 11
split_gain=524.828 1078.68 1032.33
threshold=0.11171871867405393 0.036751591371994345 0.22107909143952442
decision_type=2 2 2
left_child=-1 -2 -3
right_child=1 2 -4
leaf_value=-0.066585490881654733 -0.090180210277734221 0.23447402553053087 0.0037679106108150125
leaf_weight=24 14.999999999999998 15.000000000000002 15.999999999999998
leaf_count=24 15 15 16
internal_value=0.00902696 0.0485792 0.115859
internal_weight=70 46 31
internal_count=70 46 31
is_linear=0
shrinkage=0.02


Tree=133
num_leaves=3
num_cat=0
split_feature=3 5
split_gain=513.153 704.636
threshold=0.060756192959582823 0.28445152511826571
decision_type=2 2
left_child=-1 -2
right_child=1 -3
leaf_value=0.097304183051224152 -0.094148174704660803 0.054488067231237648
leaf_weight=19 27 24
leaf_count=19 27 24
internal_value=0.00884817 -0.0241928
internal_weight=70 51
internal_count=70 51
is_linear=0
shrinkage=0.02


Tree=134
num_leaves=3
num_cat=0
split_feature=3 5
split_gain=492.924 676.844
threshold=0.060756192959582823 0.28445152511826571
decision_type=2 2
left_child=-1 -2
right_child=1 -3
leaf_value=0.095368286789399792 -0.092272156560552945 0.053402827013577667
leaf_weight=19 27 24
leaf_count=19 27 24
internal_value=0.00867285 -0.0237097
internal_weight=70 51
internal_count=70 51
is_linear=0
shrinkage=0.02


Tree=135
num_leaves=3
num_cat=0
split_feature=9 2
split_gain=1127.72 575.88
threshold=0.45303247948552128 0.062754409769335176
decision_type=2 2
left_child=1 -1
right_child=-2 -3
leaf_value=0.0029903777736929515 0.080052429556436974 -0.1383825475615329
leaf_weight=20 29 27
leaf_count=20 29 27
internal_value=-0.0178257 -0.0783028
internal_weight=76 47
internal_count=76 47
is_linear=0
shrinkage=0.02


Tree=136
num_leaves=4
num_cat=0
split_feature=10 12 4
split_gain=795.039 1243.01 555.754
threshold=0.031961152873395314 0.014935546104628952 0.074770424319189399
decision_type=2 2 2
left_child=-1 -2 -3
right_child=1 2 -4
leaf_value=-0.1422813808251612 0.17302328134214645 -0.11152618419502584 0.029039273044380406
leaf_weight=15.999999999999998 14.999999999999998 21 24
leaf_count=16 15 21 24
internal_value=-0.0174696 0.0159617 -0.0366154
internal_weight=76 60 45
internal_count=76 60 45
is_linear=0
shrinkage=0.02


Tree=137
num_leaves=3
num_cat=0
split_feature=9 2
split_gain=1071.2 556.144
threshold=0.45303247948552128 0.062754409769335176
decision_type=2 2
left_child=1 -1
right_child=-2 -3
leaf_value=0.0038187163326870738 0.078271567325821453 -0.13510584243549192
leaf_weight=20 29 27
leaf_count=20 29 27
internal_value=-0.017121 -0.076064
internal_weight=76 47
internal_count=76 47
is_linear=0
shrinkage=0.02


Tree=138
num_leaves=4
num_cat=0
split_feature=9 5 6
split_gain=1028.92 404.785 343.163
threshold=0.45303247948552128 0.15945806703181606 0.26558248193484441
decision_type=2 2 2
left_child=1 -1 -3
right_child=-2 2 -4
leaf_value=0.0033361058764987519 0.076711516441758151 -0.18603030359508183 -0.050276317849064507
leaf_weight=17 29 15.000000000000002 14.999999999999998
leaf_count=17 29 15 15
internal_value=-0.0167789 -0.0745474 -0.118612
internal_weight=76 47 30
internal_count=76 47 30
is_linear=0
shrinkage=0.02


Tree=139
num_leaves=4
num_cat=0
split_feature=9 5 6
split_gain=988.381 388.883 329.639
threshold=0.45303247948552128 0.15945806703181606 0.26558248193484441
decision_type=2 2 2
left_child=1 -1 -3
right_child=-2 2 -4
leaf_value=0.0032697776883666273 0.075182557040473441 -0.18233433542662106 -0.049277448527860326
leaf_weight=17 29 15.000000000000002 14.999999999999998
leaf_count=17 29 15 15
internal_value=-0.0164469 -0.0730663 -0.116257
internal_weight=76 47 30
internal_count=76 47 30
is_linear=0
shrinkage=0.02


Tree=140
num_leaves=4
num_cat=0
split_feature=3 10 10
split_gain=699.127 662.318 763.655
threshold=0.14274952919020717 0.091278145746732806 0.038426321087930405
decision_type=2 2 2
left_child=1 2 -1
right_child=-2 -3 -4
leaf_value=0.013136252062210186 -0.058104012599730401 -0.041004404042730265 0.2063573894843212
leaf_weight=14.999999999999998 27 14.999999999999998 18
leaf_count=15 27 15 18
internal_value=0.0231377 0.0689035 0.118895
internal_weight=75 48 33
internal_count=75 48 33
is_linear=0
shrinkage=0.02


Tree=141
num_leaves=3
num_cat=0
split_feature=3 0
split_gain=671.573 484.03
threshold=0.14274952919020717 0.42171674283706512
decision_type=2 2
left_child=1 -1
right_child=-2 -3
leaf_value=0.12578229166082039 -0.05694621717357988 -0.0014744975394253277
leaf_weight=26 27 22
leaf_count=26 27 22
internal_value=0.0226776 0.0675329
internal_weight=75 48
internal_count=75 48
is_linear=0
shrinkage=0.02


Tree=142
num_leaves=4
num_cat=0
split_feature=3 10 10
split_gain=645.073 632.026 733.424
threshold=0.14274952919020717 0.091278145746732806 0.038426321087930405
decision_type=2 2 2
left_child=1 2 -1
right_child=-2 -3 -4
leaf_value=0.011387594677754588 -0.055811497905597474 -0.041171761885384059 0.20073559790685033
leaf_weight=14.999999999999998 27 14.999999999999998 18
leaf_count=15 27 15 18
internal_value=0.0222248 0.0661866 0.115023
internal_weight=75 48 33
internal_count=75 48 33
is_linear=0
shrinkage=0.02


Tree=143
num_leaves=4
num_cat=0
split_feature=3 10 10
split_gain=619.649 607.165 704.515
threshold=0.14274952919020717 0.091278145746732806 0.038426321087930405
decision_type=2 2 2
left_child=1 2 -1
right_child=-2 -3 -4
leaf_value=0.011161348709207498 -0.054699384260001656 -0.040353778055961555 0.19674306934380401
leaf_weight=14.999999999999998 27 14.999999999999998 18
leaf_count=15 27 15 18
internal_value=0.0217828 0.0648699 0.112737
internal_weight=75 48 33
internal_count=75 48 33
is_linear=0
shrinkage=0.02


Tree=144
num_leaves=4
num_cat=0
split_feature=3 10 10
split_gain=595.227 583.283 676.745
threshold=0.14274952919020717 0.091278145746732806 0.038426321087930405
decision_type=2 2 2
left_child=1 2 -1
right_child=-2 -3 -4
leaf_value=0.010939601746615986 -0.053609436020200109 -0.039552047426337437 0.19282994596503716
leaf_weight=14.999999999999998 27 14.999999999999998 18
leaf_count=15 27 15 18
internal_value=0.0213496 0.0635795 0.110496
internal_weight=75 48 33
internal_count=75 48 33
is_linear=0
shrinkage=0.02


Tree=145
num_leaves=4
num_cat=0
split_feature=10 11 5
split_gain=460.314 996.104 497.818
threshold=0.074369532155047907 0.21445328700298041 0.30372352807311404
decision_type=2 2 2
left_child=1 -1 -2
right_child=2 -3 -4
leaf_value=0.14781970046052886 -0.11869296892775291 -0.053894484848252135 0.034992693465277058
leaf_weight=20 19 19 14.999999999999998
leaf_count=20 19 19 15
internal_value=0.00275165 0.049611 -0.050928
internal_weight=73 39 34
internal_count=73 39 34
is_linear=0
shrinkage=0.02


Tree=146
num_leaves=3
num_cat=0
split_feature=4 6
split_gain=458.078 604.982
threshold=0.078332805573147576 0.23311619582956347
decision_type=2 2
left_child=1 -1
right_child=-2 -3
leaf_value=-0.022461219952278531 -0.070959237664292893 0.11819349252782163
leaf_weight=29 23 21
leaf_count=29 23 21
internal_value=0.00269634 0.0366918
internal_weight=73 50
internal_count=73 50
is_linear=0
shrinkage=0.02


Tree=147
num_leaves=4
num_cat=0
split_feature=10 11 5
split_gain=440.839 957.149 484.727
threshold=0.074369532155047907 0.21445328700298041 0.30372352807311404
decision_type=2 2 2
left_child=1 -1 -2
right_child=2 -3 -4
leaf_value=0.14477000511700833 -0.11675822437745739 -0.052959426388690604 0.034891425884322612
leaf_weight=20 19 19 14.999999999999998
leaf_count=20 19 19 15
internal_value=0.002642 0.0485001 -0.0498892
internal_weight=73 39 34
internal_count=73 39 34
is_linear=0
shrinkage=0.02


Tree=148
num_leaves=3
num_cat=0
split_feature=4 11
split_gain=438.933 633.575
threshold=0.078332805573147576 0.21445328700298041
decision_type=2 2
left_child=1 -1
right_child=-2 -3
leaf_value=0.098845147530803479 -0.069510429989207867 -0.044280996360390436
leaf_weight=28 23 22
leaf_count=28 23 22
internal_value=0.00258889 0.035867
internal_weight=73 50
internal_count=73 50
is_linear=0
shrinkage=0.02


Tree=149
num_leaves=3
num_cat=0
split_feature=4 11
split_gain=421.612 608.589
threshold=0.078332805573147576 0.21445328700298041
decision_type=2 2
left_child=1 -1
right_child=-2 -3
leaf_value=0.096875277295231405 -0.068126240973864799 -0.043399384720293102
leaf_weight=28 23 22
leaf_count=28 23 22
internal_value=0.0025356 0.0351511
internal_weight=73 50
internal_count=73 50
is_linear=0
shrinkage=0.02


Tree=150
num_leaves=4
num_cat=0
split_feature=1 2 6
split_gain=460.111 549.476 593.817
threshold=0.15765401941639726 0.098258706467661702 0.40530548040696796
decision_type=2 2 2
left_child=-1 -2 -3
right_child=1 2 -4
leaf_value=0.075736128660653143 -0.10069129681067843 -0.063581564395336895 0.11100050561916755
leaf_weight=24 24 15.000000000000002 15.999999999999998
leaf_count=24 24 15 16
internal_value=0.00282689 -0.0290315 0.0265282
internal_weight=79 55 31
internal_count=79 55 31
is_linear=0
shrinkage=0.02


Tree=151
num_leaves=4
num_cat=0
split_feature=10 10 2
split_gain=454.272 1053 479.477
threshold=0.038426321087930405 0.06348886864301409 0.12226368159203982
decision_type=2 2 2
left_child=-1 -2 -3
right_child=1 2 -4
leaf_value=-0.085210205863193916 0.15200908997920171 -0.088308024685104167 0.047119697875377391
leaf_weight=18 19 23 19
leaf_count=18 19 23 19
internal_value=0.00277041 0.0288616 -0.0270292
internal_weight=79 61 42
internal_count=79 61 42
is_linear=0
shrinkage=0.02


Tree=152
num_leaves=4
num_cat=0
split_feature=1 2 6
split_gain=444.132 517.626 565.763
threshold=0.15765401941639726 0.098258706467661702 0.40530548040696796
decision_type=2 2 2
left_child=-1 -2 -3
right_child=1 2 -4
leaf_value=0.074347714734769962 -0.098136447674258623 -0.062611448016782451 0.10779562465892814
leaf_weight=24 24 15.000000000000002 15.999999999999998
leaf_count=24 24 15 16
internal_value=0.00271515 -0.0285846 0.0253401
internal_weight=79 55 31
internal_count=79 55 31
is_linear=0
shrinkage=0.02


Tree=153
num_leaves=4
num_cat=0
split_feature=10 10 2
split_gain=435.78 1011.53 448.848
threshold=0.038426321087930405 0.06348886864301409 0.12226368159203982
decision_type=2 2 2
left_child=-1 -2 -3
right_child=1 2 -4
leaf_value=-0.08350977939795394 0.14891449499309686 -0.085851487370280477 0.045178279851743684
leaf_weight=18 19 23 19
leaf_count=18 19 23 19
internal_value=0.00266088 0.0282161 -0.0265621
internal_weight=79 61 42
internal_count=79 61 42
is_linear=0
shrinkage=0.02


Tree=154
num_leaves=4
num_cat=0
split_feature=1 2 6
split_gain=428.658 487.67 539.065
threshold=0.15765401941639726 0.098258706467661702 0.40530548040696796
decision_type=2 2 2
left_child=-1 -2 -3
right_child=1 2 -4
leaf_value=0.072981974860939255 -0.095650632606502403 -0.061648401235113066 0.10468827592660182
leaf_weight=24 24 15.000000000000002 15.999999999999998
leaf_count=24 24 15 16
internal_value=0.00260778 -0.0281414 0.024199
internal_weight=79 55 31
internal_count=79 55 31
is_linear=0
shrinkage=0.02


Tree=155
num_leaves=4
num_cat=0
split_feature=1 12 12
split_gain=1013.07 419.112 386.156
threshold=0.15765401941639726 0.092015894658001737 0.021600649467611675
decision_type=2 2 2
left_child=-1 2 -2
right_child=1 -3 -4
leaf_value=0.14615358879215909 -0.050595713871421276 -0.10314207783396941 0.084026300735895149
leaf_weight=21 15.999999999999998 15.999999999999998 18
leaf_count=21 16 16 18
internal_value=0.0299232 -0.019048 0.0206535
internal_weight=71 50 34
internal_count=71 50 34
is_linear=0
shrinkage=0.02


Tree=156
num_leaves=4
num_cat=0
split_feature=1 12 12
split_gain=973.161 402.609 370.956
threshold=0.15765401941639726 0.092015894658001737 0.021600649467611675
decision_type=2 2 2
left_child=-1 2 -2
right_child=1 -3 -4
leaf_value=0.14324437365147741 -0.049590085449264097 -0.10109204982378468 0.082355058944027726
leaf_weight=21 15.999999999999998 15.999999999999998 18
leaf_count=21 16 16 18
internal_value=0.0293263 -0.0186698 0.0202412
internal_weight=71 50 34
internal_count=71 50 34
is_linear=0
shrinkage=0.02


Tree=157
num_leaves=4
num_cat=0
split_feature=6 5 9
split_gain=746.589 685.689 518.435
threshold=0.32226169559621426 0.27109598661993001 0.44335105378356959
decision_type=2 2 2
left_child=2 -2 -1
right_child=1 -3 -4
leaf_value=0.021455158680232601 -0.12322454376115324 0.056187155927930554 0.17169651873801883
leaf_weight=20 18 15.999999999999998 17
leaf_count=20 18 16 17
internal_value=0.0287413 -0.0388197 0.0908156
internal_weight=71 34 37
internal_count=71 34 37
is_linear=0
shrinkage=0.02


Tree=158
num_leaves=4
num_cat=0
split_feature=1 12 12
split_gain=919.225 389.572 353.078
threshold=0.15765401941639726 0.092015894658001737 0.021600649467611675
decision_type=2 2 2
left_child=-1 2 -2
right_child=1 -3 -4
leaf_value=0.13888747201429158 -0.048325795284154247 -0.099551876983287158 0.080399732589721676
leaf_weight=21 15.999999999999998 15.999999999999998 18
leaf_count=21 16 16 18
internal_value=0.0281706 -0.018475 0.0198003
internal_weight=71 50 34
internal_count=71 50 34
is_linear=0
shrinkage=0.02


Tree=159
num_leaves=4
num_cat=0
split_feature=1 12 12
split_gain=883.01 374.232 339.18
threshold=0.15765401941639726 0.092015894658001737 0.021600649467611675
decision_type=2 2 2
left_child=-1 2 -2
right_child=1 -3 -4
leaf_value=0.1361228880738195 -0.047365283486635781 -0.097573208542343984 0.078800622297255374
leaf_weight=21 15.999999999999998 15.999999999999998 18
leaf_count=21 16 16 18
internal_value=0.0276086 -0.0181082 0.019405
internal_weight=71 50 34
internal_count=71 50 34
is_linear=0
shrinkage=0.02


Tree=160
num_leaves=3
num_cat=0
split_feature=10 10
split_gain=780.477 1037.1
threshold=0.046921419248687216 0.091278145746732806
decision_type=2 2
left_child=-1 -2
right_child=1 -3
leaf_value=-0.10944305369341041 0.12481216623605072 -0.060883879633063812
leaf_weight=25 23 25
leaf_count=25 23 25
internal_value=-0.019043 0.0281284
internal_weight=73 48
internal_count=73 48
is_linear=0
shrinkage=0.02


Tree=161
num_leaves=4
num_cat=0
split_feature=2 6 1
split_gain=510.761 881.466 978.559
threshold=0.052238805970149273 0.22783889062499049 0.29827008182226439
decision_type=2 2 2
left_child=-1 -2 -3
right_child=1 2 -4
leaf_value=-0.12228449120426811 -0.094919787278107556 0.15647893417503031 -0.050602318144733122
leaf_weight=14.999999999999998 21 21 15.999999999999998
leaf_count=15 21 21 16
internal_value=-0.0186634 0.00826507 0.0669814
internal_weight=73 58 37
internal_count=73 58 37
is_linear=0
shrinkage=0.02


Tree=162
num_leaves=3
num_cat=0
split_feature=10 10
split_gain=731.725 995.979
threshold=0.046921419248687216 0.091278145746732806
decision_type=2 2
left_child=-1 -2
right_child=1 -3
leaf_value=-0.10582561371335945 0.12212816722723313 -0.059848990259892439
leaf_weight=25 23 25
leaf_count=25 23 25
internal_value=-0.0182937 0.0273794
internal_weight=73 48
internal_count=73 48
is_linear=0
shrinkage=0.02


Tree=163
num_leaves=3
num_cat=0
split_feature=10 10
split_gain=702.862 956.708
threshold=0.046921419248687216 0.091278145746732806
decision_type=2 2
left_child=-1 -2
right_child=1 -3
leaf_value=-0.10371753549195856 0.11969617711775231 -0.058656778297576297
leaf_weight=25 23 25
leaf_count=25 23 25
internal_value=-0.0179291 0.0268336
internal_weight=73 48
internal_count=73 48
is_linear=0
shrinkage=0.02


Tree=164
num_leaves=3
num_cat=0
split_feature=10 10
split_gain=675.138 918.986
threshold=0.046921419248687216 0.091278145746732806
decision_type=2 2
left_child=-1 -2
right_child=1 -3
leaf_value=-0.10165145033384225 0.11731261667235073 -0.057488317432631532
leaf_weight=25 23 25
leaf_count=25 23 25
internal_value=-0.0175716 0.0262986
internal_weight=73 48
internal_count=73 48
is_linear=0
shrinkage=0.02


Tree=165
num_leaves=4
num_cat=0
split_feature=12 4 3
split_gain=527.776 247.776 309.188
threshold=0.013345594416497278 0.10069664344521849 0.08557732286545848
decision_type=2 2 2
left_child=-1 2 -2
right_child=1 -3 -4
leaf_value=0.090990383767134322 -0.0036608847087582215 0.015837313766878934 -0.12259689811846655
leaf_weight=14.999999999999998 14.999999999999998 19 21
leaf_count=15 15 19 21
internal_value=-0.0137465 -0.0424606 -0.073243
internal_weight=70 55 36
internal_count=70 55 36
is_linear=0
shrinkage=0.02


Tree=166
num_leaves=3
num_cat=0
split_feature=1 6
split_gain=506.078 606.407
threshold=0.23577729837013608 0.21235224455594701
decision_type=2 2
left_child=1 -1
right_child=-2 -3
leaf_value=-0.064127689740672608 -0.077293397364337824 0.093121152114108277
leaf_weight=15.999999999999998 29 25
leaf_count=16 29 25
internal_value=-0.0134715 0.0317004
internal_weight=70 41
internal_count=70 41
is_linear=0
shrinkage=0.02


Tree=167
num_leaves=4
num_cat=0
split_feature=12 6 9
split_gain=503.067 371.791 265.226
threshold=0.013345594416497278 0.40530548040696796 0.45303247948552128
decision_type=2 2 2
left_child=-1 2 -2
right_child=1 -3 -4
leaf_value=0.089051072676450224 -0.13911383587017395 0.01998780044126304 -0.023516881576437033
leaf_weight=14.999999999999998 17 23 14.999999999999998
leaf_count=15 17 23 15
internal_value=-0.0132035 -0.0412384 -0.0852321
internal_weight=70 55 32
internal_count=70 55 32
is_linear=0
shrinkage=0.02


Tree=168
num_leaves=4
num_cat=0
split_feature=12 2 12
split_gain=483.277 458.923 412.588
threshold=0.013345594416497278 0.12226368159203982 0.03717087232857634
decision_type=2 2 2
left_child=-1 2 -2
right_child=1 -3 -4
leaf_value=0.087281845136983519 -0.018536549311632299 0.030193080211656662 -0.16008484481284338
leaf_weight=14.999999999999998 17 22 15.999999999999998
leaf_count=15 17 22 16
internal_value=-0.0129403 -0.0404188 -0.0875027
internal_weight=70 55 33
internal_count=70 55 33
is_linear=0
shrinkage=0.02


Tree=169
num_leaves=3
num_cat=0
split_feature=1 3
split_gain=482.004 676.839
threshold=0.23577729837013608 0.12994350282485878
decision_type=2 2
left_child=1 -1
right_child=-2 -3
leaf_value=0.093027911236459732 -0.074969339940146484 -0.075197272616506411
leaf_weight=26 29 14.999999999999998
leaf_count=26 29 15
internal_value=-0.0126827 0.0314002
internal_weight=70 41
internal_count=70 41
is_linear=0
shrinkage=0.02


Tree=170
num_leaves=4
num_cat=0
split_feature=10 0 11
split_gain=482.497 591.506 736.291
threshold=0.031961152873395314 0.42171674283706512 0.064519881607953286
decision_type=2 2 2
left_child=-1 2 -2
right_child=1 -3 -4
leaf_value=-0.11571770285928487 -0.022088508243718854 -0.060906115272492747 0.1638797856561886
leaf_weight=14.999999999999998 18 26 15.999999999999998
leaf_count=15 18 26 16
internal_value=-0.0146515 0.0107323 0.0655913
internal_weight=75 60 34
internal_count=75 60 34
is_linear=0
shrinkage=0.02


Tree=171
num_leaves=3
num_cat=0
split_feature=3 11
split_gain=694.46 1300.41
threshold=0.14274952919020717 0.21445328700298041
decision_type=2 2
left_child=1 -1
right_child=-2 -3
leaf_value=0.14411749863516693 -0.095333602129313327 -0.064363354645469648
leaf_weight=22 27 26
leaf_count=22 27 26
internal_value=-0.0143599 0.0312498
internal_weight=75 48
internal_count=75 48
is_linear=0
shrinkage=0.02


Tree=172
num_leaves=3
num_cat=0
split_feature=3 11
split_gain=667.065 1249.14
threshold=0.14274952919020717 0.21445328700298041
decision_type=2 2
left_child=1 -1
right_child=-2 -3
leaf_value=0.14124818875239445 -0.093433968295030492 -0.063081018056906052
leaf_weight=22 27 26
leaf_count=22 27 26
internal_value=-0.0140731 0.0306272
internal_weight=75 48
internal_count=75 48
is_linear=0
shrinkage=0.02


Tree=173
num_leaves=3
num_cat=0
split_feature=3 11
split_gain=640.75 1199.89
threshold=0.14274952919020717 0.21445328700298041
decision_type=2 2
left_child=1 -1
right_child=-2 -3
leaf_value=0.13843601011043222 -0.091572184009525603 -0.061824233888209554
leaf_weight=22 27 26
leaf_count=22 27 26
internal_value=-0.013792 0.0300171
internal_weight=75 48
internal_count=75 48
is_linear=0
shrinkage=0.02


Tree=174
num_leaves=3
num_cat=0
split_feature=3 10
split_gain=615.473 513.636
threshold=0.14274952919020717 0.046921419248687216
decision_type=2 2
left_child=1 -1
right_child=-2 -3
leaf_value=-0.035883603966582363 -0.089747497544957255 0.094682777318717035
leaf_weight=24 27 24
leaf_count=24 27 24
internal_value=-0.0135166 0.0294191
internal_weight=75 48
internal_count=75 48
is_linear=0
shrinkage=0.02


Tree=175
num_leaves=4
num_cat=0
split_feature=10 3 6
split_gain=569.558 552.08 306.414
threshold=0.027901968003059125 0.095103578154425619 0.36194188613360279
decision_type=2 2 2
left_child=-1 -2 -3
right_child=1 2 -4
leaf_value=-0.14397795014034045 -0.08896939033580617 0.09828991504005305 -0.013868747525870518
leaf_weight=14.999999999999998 21 18 21
leaf_count=15 21 18 21
internal_value=-0.0341798 -0.00650312 0.0379646
internal_weight=75 60 39
internal_count=75 60 39
is_linear=0
shrinkage=0.02


Tree=176
num_leaves=4
num_cat=0
split_feature=10 12 2
split_gain=547.15 799.041 1001.59
threshold=0.027901968003059125 0.014935546104628952 0.12226368159203982
decision_type=2 2 2
left_child=-1 -2 -3
right_child=1 2 -4
leaf_value=-0.14111746339608502 0.11952614390692175 -0.13658965487945129 0.052129684827903998
leaf_weight=14.999999999999998 14.999999999999998 24 21
leaf_count=15 15 24 21
internal_value=-0.0335007 -0.0063732 -0.048556
internal_weight=75 60 45
internal_count=75 60 45
is_linear=0
shrinkage=0.02


Tree=177
num_leaves=5
num_cat=0
split_feature=10 12 3 12
split_gain=525.645 767.575 964.2 125.678
threshold=0.027901968003059125 0.014935546104628952 0.11345469763548861 0.092015894658001737
decision_type=2 2 2 2
left_child=-1 -2 -3 -4
right_child=1 2 3 -5
leaf_value=-0.13831379953599135 0.11715145159636114 -0.17795121072933376 0.058692765267479484 -0.022874383610605405
leaf_weight=14.999999999999998 14.999999999999998 14.999999999999998 15.000000000000002 14.999999999999998
leaf_count=15 15 15 15 15
internal_value=-0.032833 -0.00624324 -0.0475877 0.0179022
internal_weight=75 60 45 30
internal_count=75 60 45 30
is_linear=0
shrinkage=0.02


Tree=178
num_leaves=4
num_cat=0
split_feature=10 3 6
split_gain=504.965 518.148 293.735
threshold=0.027901968003059125 0.095103578154425619 0.36194188613360279
decision_type=2 2 2
left_child=-1 -2 -3
right_child=1 2 -4
leaf_value=-0.13556584888736145 -0.086011694274242462 0.096024340615088119 -0.013787596169241231
leaf_weight=14.999999999999998 21 18 21
leaf_count=15 21 18 21
internal_value=-0.0321807 -0.00611854 0.0369596
internal_weight=75 60 39
internal_count=75 60 39
is_linear=0
shrinkage=0.02


Tree=179
num_leaves=4
num_cat=0
split_feature=10 12 4
split_gain=485.098 739.696 912.007
threshold=0.027901968003059125 0.014935546104628952 0.07095358726137703
decision_type=2 2 2
left_child=-1 -2 -3
right_child=1 2 -4
leaf_value=-0.13287248867237017 0.11513592461876523 -0.16169337568575878 0.023559669939224405
leaf_weight=14.999999999999998 14.999999999999998 17 28
leaf_count=15 15 17 28
internal_value=-0.0315413 -0.0059963 -0.0465838
internal_weight=75 60 45
internal_count=75 60 45
is_linear=0
shrinkage=0.02


Tree=180
num_leaves=4
num_cat=0
split_feature=10 10 2
split_gain=840.765 927.988 540.54
threshold=0.027901968003059125 0.06348886864301409 0.12226368159203982
decision_type=2 2 2
left_child=-1 -2 -3
right_child=1 2 -4
leaf_value=-0.13023263684961181 0.13277678771137696 -0.10058441913564792 0.054207671762209877
leaf_weight=14.999999999999998 24 19 17
leaf_count=15 24 19 17
internal_value=0.00315841 0.0367007 -0.0274851
internal_weight=75 60 36
internal_count=75 60 36
is_linear=0
shrinkage=0.02


Tree=181
num_leaves=4
num_cat=0
split_feature=10 10 2
split_gain=807.67 891.388 519.255
threshold=0.027901968003059125 0.06348886864301409 0.12226368159203982
decision_type=2 2 2
left_child=-1 -2 -3
right_child=1 2 -4
leaf_value=-0.12764523190378355 0.13013226735641353 -0.098583264151168748 0.053129860002394995
leaf_weight=14.999999999999998 24 19 17
leaf_count=15 24 19 17
internal_value=0.00309354 0.0359695 -0.0269368
internal_weight=75 60 36
internal_count=75 60 36
is_linear=0
shrinkage=0.02


Tree=182
num_leaves=4
num_cat=0
split_feature=10 10 2
split_gain=775.878 856.232 498.809
threshold=0.027901968003059125 0.06348886864301409 0.12226368159203982
decision_type=2 2 2
left_child=-1 -2 -3
right_child=1 2 -4
leaf_value=-0.12510923221411296 0.12754042508567517 -0.096621922572869917 0.052073477750633188
leaf_weight=14.999999999999998 24 19 17
leaf_count=15 24 19 17
internal_value=0.00302999 0.0352529 -0.0263995
internal_weight=75 60 36
internal_count=75 60 36
is_linear=0
shrinkage=0.02


Tree=183
num_leaves=3
num_cat=0
split_feature=3 11
split_gain=582.439 930.92
threshold=0.14274952919020717 0.21445328700298041
decision_type=2 2
left_child=1 -1
right_child=-2 -3
leaf_value=0.132614228755112 -0.071161778316286659 -0.043180142413840258
leaf_weight=24 27 24
leaf_count=24 27 24
internal_value=0.00296774 0.0447684
internal_weight=75 48
internal_count=75 48
is_linear=0
shrinkage=0.02


Tree=184
num_leaves=4
num_cat=0
split_feature=10 10 2
split_gain=746.502 816.986 478.66
threshold=0.027901968003059125 0.06348886864301409 0.12226368159203982
decision_type=2 2 2
left_child=-1 -2 -3
right_child=1 2 -4
leaf_value=-0.12278169120384369 0.12466333926744234 -0.094497208470449401 0.051163154903211085
leaf_weight=14.999999999999998 24 19 17
leaf_count=15 24 19 17
internal_value=0.00290781 0.0345155 -0.0257066
internal_weight=75 60 36
internal_count=75 60 36
is_linear=0
shrinkage=0.02


Tree=185
num_leaves=4
num_cat=0
split_feature=3 5 5
split_gain=254.399 926.594 476.358
threshold=0.14274952919020717 0.23159259895921039 0.15945806703181606
decision_type=2 2 2
left_child=1 2 -1
right_child=-2 -3 -4
leaf_value=0.039826263011489782 -0.054626069179209098 0.15210197101365652 -0.10335555793044611
leaf_weight=18 28 14.999999999999998 19
leaf_count=18 28 15 19
internal_value=-0.00611097 0.0200289 -0.033726
internal_weight=80 52 37
internal_count=80 52 37
is_linear=0
shrinkage=0.02


Tree=186
num_leaves=4
num_cat=0
split_feature=10 11 11
split_gain=563.933 640.584 1318.49
threshold=0.038426321087930405 0.24795706244059437 0.11171871867405393
decision_type=2 2 2
left_child=-1 2 -2
right_child=1 -3 -4
leaf_value=-0.091991094571972326 -0.023592856487551869 -0.085401605907334213 0.20238304447709468
leaf_weight=22 26 14.999999999999998 17
leaf_count=22 26 15 17
internal_value=-0.0059874 0.0267024 0.0659623
internal_weight=80 58 43
internal_count=80 58 43
is_linear=0
shrinkage=0.02


Tree=187
num_leaves=4
num_cat=0
split_feature=10 11 11
split_gain=541.697 615.377 1266.58
threshold=0.038426321087930405 0.24795706244059437 0.11171871867405393
decision_type=2 2 2
left_child=-1 2 -2
right_child=1 -3 -4
leaf_value=-0.090159598648278425 -0.023122807499092658 -0.083704885210817218 0.19835905655085692
leaf_weight=22 26 14.999999999999998 17
leaf_count=22 26 15 17
internal_value=-0.00586812 0.0261702 0.0646505
internal_weight=80 58 43
internal_count=80 58 43
is_linear=0
shrinkage=0.02


Tree=188
num_leaves=4
num_cat=0
split_feature=3 5 5
split_gain=253.58 874.403 468.385
threshold=0.14274952919020717 0.23159259895921039 0.15945806703181606
decision_type=2 2 2
left_child=1 2 -1
right_child=-2 -3 -4
leaf_value=0.041055147516134691 -0.054188862279640822 0.14864476330232937 -0.10092145931034187
leaf_weight=18 28 14.999999999999998 19
leaf_count=18 28 15 19
internal_value=-0.00575122 0.0203461 -0.0318734
internal_weight=80 52 37
internal_count=80 52 37
is_linear=0
shrinkage=0.02


Tree=189
num_leaves=4
num_cat=0
split_feature=1 6 11
split_gain=251.627 666.767 578.749
threshold=0.11363497964082737 0.19161131731298256 0.11171871867405393
decision_type=2 2 2
left_child=-1 -2 -3
right_child=1 2 -4
leaf_value=0.067897080301449003 -0.13919930315175597 -0.055486718468457104 0.080319919002008633
leaf_weight=14.999999999999998 14.999999999999998 25 25
leaf_count=15 15 25 25
internal_value=-0.00563483 -0.0227127 0.0124015
internal_weight=80 65 50
internal_count=80 65 50
is_linear=0
shrinkage=0.02


Tree=190
num_leaves=4
num_cat=0
split_feature=7 3 11
split_gain=768.562 697.932 554.589
threshold=0.382227671323561 0.11345469763548861 0.049561366374239336
decision_type=2 2 2
left_child=2 -2 -1
right_child=1 -3 -4
leaf_value=-0.021283771060160453 0.090481855458738408 -0.071371721372554445 -0.18822730148047734
leaf_weight=14.999999999999998 24 19 17
leaf_count=15 24 19 17
internal_value=-0.0362804 0.0189191 -0.110345
internal_weight=75 43 32
internal_count=75 43 32
is_linear=0
shrinkage=0.02


Tree=191
num_leaves=4
num_cat=0
split_feature=8 3 11
split_gain=738.3 670.425 532.73
threshold=0.38253233133916303 0.11345469763548861 0.049561366374239336
decision_type=2 2 2
left_child=2 -2 -1
right_child=1 -3 -4
leaf_value=-0.020860913447196913 0.088679730281295624 -0.069951761355574849 -0.18448476961481639
leaf_weight=14.999999999999998 24 19 17
leaf_count=15 24 19 17
internal_value=-0.0355604 0.0185407 -0.108152
internal_weight=75 43 32
internal_count=75 43 32
is_linear=0
shrinkage=0.02


Tree=192
num_leaves=3
num_cat=0
split_feature=11 6
split_gain=677.572 529.814
threshold=0.11171871867405393 0.28698792345916319
decision_type=2 2
left_child=-1 -2
right_child=1 -3
leaf_value=-0.11717384216200802 -0.045585873995449944 0.087920306238962048
leaf_weight=26 29 20
leaf_count=26 29 20
internal_value=-0.0348547 0.00893379
internal_weight=75 49
internal_count=75 49
is_linear=0
shrinkage=0.02


Tree=193
num_leaves=4
num_cat=0
split_feature=7 11 11
split_gain=686.356 517.703 370.112
threshold=0.382227671323561 0.049561366374239336 0.21445328700298041
decision_type=2 2 2
left_child=1 -1 -2
right_child=2 -3 -4
leaf_value=-0.018118503109508792 0.093946169503727306 -0.1793965861044432 -0.027108796150921894
leaf_weight=14.999999999999998 15.999999999999998 17 27
leaf_count=15 16 17 27
internal_value=-0.0341596 -0.104152 0.018002
internal_weight=75 32 43
internal_count=75 32 43
is_linear=0
shrinkage=0.02


Tree=194
num_leaves=3
num_cat=0
split_feature=11 6
split_gain=644.2 496.243
threshold=0.11171871867405393 0.28698792345916319
decision_type=2 2
left_child=-1 -2
right_child=1 -3
leaf_value=-0.11374730486751058 -0.043549252207746206 0.085657133415563788
leaf_weight=26 29 20
leaf_count=26 29 20
internal_value=-0.0334804 0.00921436
internal_weight=75 49
internal_count=75 49
is_linear=0
shrinkage=0.02


Tree=195
num_leaves=3
num_cat=0
split_feature=11 11
split_gain=416.207 680.328
threshold=0.11171871867405393 0.24795706244059437
decision_type=2 2
left_child=-1 -2
right_child=1 -3
leaf_value=-0.069183652933520551 0.10518564640666565 -0.057781589196614566
leaf_weight=29 22 19
leaf_count=29 22 19
internal_value=-0.011302 0.0296587
internal_weight=70 41
internal_count=70 41
is_linear=0
shrinkage=0.02


Tree=196
num_leaves=3
num_cat=0
split_feature=11 11
split_gain=399.777 653.52
threshold=0.11171871867405393 0.24795706244059437
decision_type=2 2
left_child=-1 -2
right_child=1 -3
leaf_value=-0.06780473429722475 0.10309145474326017 -0.056632009033133215
leaf_weight=29 22 19
leaf_count=29 22 19
internal_value=-0.0110766 0.0290669
internal_weight=70 41
internal_count=70 41
is_linear=0
shrinkage=0.02


Tree=197
num_leaves=3
num_cat=0
split_feature=11 11
split_gain=383.996 627.768
threshold=0.11171871867405393 0.24795706244059437
decision_type=2 2
left_child=-1 -2
right_child=1 -3
leaf_value=-0.066453300837388971 0.10103895180905027 -0.055505298688149574
leaf_weight=29 22 19
leaf_count=29 22 19
internal_value=-0.0108557 0.0284869
internal_weight=70 41
internal_count=70 41
is_linear=0
shrinkage=0.02


Tree=198
num_leaves=3
num_cat=0
split_feature=11 11
split_gain=368.838 603.032
threshold=0.11171871867405393 0.24795706244059437
decision_type=2 2
left_child=-1 -2
right_child=1 -3
leaf_value=-0.065128800524878752 0.099027315113878897 -0.054401004370594523
leaf_weight=29 22 19
leaf_count=29 22 19
internal_value=-0.0106391 0.0279184
internal_weight=70 41
internal_count=70 41
is_linear=0
shrinkage=0.02


Tree=199
num_leaves=3
num_cat=0
split_feature=11 11
split_gain=354.278 579.27
threshold=0.11171871867405393 0.24795706244059437
decision_type=2 2
left_child=-1 -2
right_child=1 -3
leaf_value=-0.06383070361573262 0.097055734088517961 -0.053318681666988346
leaf_weight=29 22 19
leaf_count=29 22 19
internal_value=-0.0104269 0.0273612
internal_weight=70 41
internal_count=70 41
is_linear=0
shrinkage=0.02


Tree=200
num_leaves=4
num_cat=0
split_feature=6 9 0
split_gain=403.025 499.47 513.018
threshold=0.22783889062499049 0.40847343064459596 0.43175608804996968
decision_type=2 2 2
left_child=-1 -2 -3
right_child=1 2 -4
leaf_value=-0.085509852446042575 -0.062655598605490484 0.15039961420147621 -0.014539692133467719
leaf_weight=22 19 15.000000000000002 14.999999999999998
leaf_count=22 19 15 15
internal_value=-0.0145852 0.0173271 0.0680892
internal_weight=71 49 30
internal_count=71 49 30
is_linear=0
shrinkage=0.02


Tree=201
num_leaves=4
num_cat=0
split_feature=10 10 2
split_gain=579.513 859.815 588.277
threshold=0.046921419248687216 0.077618726648310377 0.12226368159203982
decision_type=2 2 2
left_child=-1 -2 -3
right_child=1 2 -4
leaf_value=-0.096631568303871984 0.14449359411038226 -0.11487711064299644 0.056417984551941316
leaf_weight=23 15.999999999999998 17 14.999999999999998
leaf_count=23 16 17 15
internal_value=-0.0142944 0.0252362 -0.0345946
internal_weight=71 48 32
internal_count=71 48 32
is_linear=0
shrinkage=0.02


Tree=202
num_leaves=4
num_cat=0
split_feature=6 5 11
split_gain=377.752 477.952 402.375
threshold=0.22783889062499049 0.23159259895921039 0.11171871867405393
decision_type=2 2 2
left_child=-1 -2 -3
right_child=1 2 -4
leaf_value=-0.082673799527716307 -0.061353518975342754 -0.006653754632204573 0.13943251698222384
leaf_weight=22 19 15.000000000000002 14.999999999999998
leaf_count=22 19 15 15
internal_value=-0.0140082 0.0168861 0.0665435
internal_weight=71 49 30
internal_count=71 49 30
is_linear=0
shrinkage=0.02


Tree=203
num_leaves=4
num_cat=0
split_feature=10 10 2
split_gain=545.216 818.878 566.685
threshold=0.046921419248687216 0.077618726648310377 0.12226368159203982
decision_type=2 2 2
left_child=-1 -2 -3
right_child=1 2 -4
leaf_value=-0.093593254048070854 0.14099724377164188 -0.11257164034927102 0.055549459773183658
leaf_weight=23 15.999999999999998 17 14.999999999999998
leaf_count=23 16 17 15
internal_value=-0.0137289 0.0246128 -0.033775
internal_weight=71 48 32
internal_count=71 48 32
is_linear=0
shrinkage=0.02


Tree=204
num_leaves=4
num_cat=0
split_feature=10 10 2
split_gain=523.733 786.637 544.387
threshold=0.046921419248687216 0.077618726648310377 0.12226368159203982
decision_type=2 2 2
left_child=-1 -2 -3
right_child=1 2 -4
leaf_value=-0.091729492150343858 0.13819481618656135 -0.11033337314226474 0.054445826486246476
leaf_weight=23 15.999999999999998 17 14.999999999999998
leaf_count=23 16 17 15
internal_value=-0.0134541 0.0241241 -0.0331018
internal_weight=71 48 32
internal_count=71 48 32
is_linear=0
shrinkage=0.02


Tree=205
num_leaves=4
num_cat=0
split_feature=11 2 11
split_gain=341.065 506.856 334.281
threshold=0.21445328700298041 0.052238805970149273 0.093839740921334097
decision_type=2 2 2
left_child=1 -1 -3
right_child=-2 2 -4
leaf_value=-0.051694739370156596 -0.041571477266521384 0.031355337472486242 0.15779772202700179
leaf_weight=14.999999999999998 29 19 14.999999999999998
leaf_count=15 29 19 15
internal_value=0.0126672 0.0448277 0.0874966
internal_weight=78 49 34
internal_count=78 49 34
is_linear=0
shrinkage=0.02


Tree=206
num_leaves=4
num_cat=0
split_feature=10 7 11
split_gain=391.863 573.343 490.692
threshold=0.031961152873395314 0.44130070212578798 0.064519881607953286
decision_type=2 2 2
left_child=-1 2 -2
right_child=1 -3 -4
leaf_value=-0.072193683406762896 0.020741444049189931 -0.03733011842248924 0.16933369121196104
leaf_weight=17 20 25 15.999999999999998
leaf_count=17 20 25 16
internal_value=0.0124158 0.0361078 0.087124
internal_weight=78 61 36
internal_count=78 61 36
is_linear=0
shrinkage=0.02


Tree=207
num_leaves=4
num_cat=0
split_feature=10 8 3
split_gain=376.443 550.778 596.558
threshold=0.031961152873395314 0.44273391874804807 0.14274952919020717
decision_type=2 2 2
left_child=-1 2 -2
right_child=1 -3 -4
leaf_value=-0.070758255071807316 0.16209630781443329 -0.036586490375587193 -0.00066358355750814515
leaf_weight=17 19 25 17
leaf_count=17 19 25 17
internal_value=0.0121691 0.0353907 0.0853931
internal_weight=78 61 36
internal_count=78 61 36
is_linear=0
shrinkage=0.02


Tree=208
num_leaves=4
num_cat=0
split_feature=11 2 11
split_gain=299.399 466.915 316.309
threshold=0.21445328700298041 0.052238805970149273 0.093839740921334097
decision_type=2 2 2
left_child=1 -1 -3
right_child=-2 2 -4
leaf_value=-0.050576278855469052 -0.038890075495152943 0.028415001181407745 0.15139481613967593
leaf_weight=14.999999999999998 29 19 14.999999999999998
leaf_count=15 29 19 15
internal_value=0.0119255 0.0420588 0.0830143
internal_weight=78 49 34
internal_count=78 49 34
is_linear=0
shrinkage=0.02


Tree=209
num_leaves=4
num_cat=0
split_feature=11 2 12
split_gain=287.603 448.56 306.034
threshold=0.21445328700298041 0.052238805970149273 0.092015894658001737
decision_type=2 2 2
left_child=1 -1 -3
right_child=-2 2 -4
leaf_value=-0.049571451161870894 -0.03811494670782712 0.13447815054374215 0.013512543842492515
leaf_weight=14.999999999999998 29 19 14.999999999999998
leaf_count=15 29 19 15
internal_value=0.0116888 0.0412229 0.0813658
internal_weight=78 49 34
internal_count=78 49 34
is_linear=0
shrinkage=0.02


Tree=210
num_leaves=3
num_cat=0
split_feature=5 7
split_gain=556.107 527.551
threshold=0.15945806703181606 0.42457221175382603
decision_type=2 2
left_child=-1 -2
right_child=1 -3
leaf_value=0.082383129184062667 0.025238736505186005 -0.097310216121402074
leaf_weight=22 28 28
leaf_count=22 28 28
internal_value=-0.00256775 -0.0360643
internal_weight=78 56
internal_count=78 56
is_linear=0
shrinkage=0.02


Tree=211
num_leaves=3
num_cat=0
split_feature=5 8
split_gain=534.172 506.741
threshold=0.15945806703181606 0.42552960266462858
decision_type=2 2
left_child=-1 -2
right_child=1 -3
leaf_value=0.080742920707253849 0.024735756293734621 -0.095370936241014143
leaf_weight=22 28 28
leaf_count=22 28 28
internal_value=-0.00251511 -0.0353449
internal_weight=78 56
internal_count=78 56
is_linear=0
shrinkage=0.02


Tree=212
num_leaves=3
num_cat=0
split_feature=5 8
split_gain=513.101 486.752
threshold=0.15945806703181606 0.42552960266462858
decision_type=2 2
left_child=-1 -2
right_child=1 -3
leaf_value=0.079135368118458754 0.024242804409982468 -0.093470305369842105
leaf_weight=22 28 28
leaf_count=22 28 28
internal_value=-0.00246352 -0.0346398
internal_weight=78 56
internal_count=78 56
is_linear=0
shrinkage=0.02


Tree=213
num_leaves=3
num_cat=0
split_feature=5 7
split_gain=492.862 467.551
threshold=0.15945806703181606 0.42457221175382603
decision_type=2 2
left_child=-1 -2
right_child=1 -3
leaf_value=0.077559824167872979 0.023759673054320106 -0.091607552550441423
leaf_weight=22 28 28
leaf_count=22 28 28
internal_value=-0.00241297 -0.0339488
internal_weight=78 56
internal_count=78 56
is_linear=0
shrinkage=0.02


Tree=214
num_leaves=3
num_cat=0
split_feature=5 7
split_gain=473.42 449.108
threshold=0.15945806703181606 0.42457221175382603
decision_type=2 2
left_child=-1 -2
right_child=1 -3
leaf_value=0.076015644936540006 0.023286171669531543 -0.089781920400802767
leaf_weight=22 28 28
leaf_count=22 28 28
internal_value=-0.00236344 -0.0332715
internal_weight=78 56
internal_count=78 56
is_linear=0
shrinkage=0.02


Tree=215
num_leaves=4
num_cat=0
split_feature=9 9 0
split_gain=529.968 448.085 245.799
threshold=0.43616290877617003 0.48512267928542124 0.3634361952390664
decision_type=2 2 2
left_child=2 -2 -1
right_child=1 -3 -4
leaf_value=-0.1058168337950066 0.11947931093405624 -0.021268147631337379 -0.0089135982547949872
leaf_weight=20 18 18 22
leaf_count=20 18 18 22
internal_value=-0.00702032 0.0491862 -0.0552472
internal_weight=78 36 42
internal_count=78 36 42
is_linear=0
shrinkage=0.02


Tree=216
num_leaves=4
num_cat=0
split_feature=9 9 0
split_gain=509.089 430.448 236.103
threshold=0.43616290877617003 0.48512267928542124 0.3634361952390664
decision_type=2 2 2
left_child=2 -2 -1
right_child=1 -3 -4
leaf_value=-0.10371102411355546 0.11710292775327988 -0.020845132853774075 -0.0087361340824834901
leaf_weight=20 18 18 22
leaf_count=20 18 18 22
internal_value=-0.00688085 0.0482068 -0.0541487
internal_weight=78 36 42
internal_count=78 36 42
is_linear=0
shrinkage=0.02


Tree=217
num_leaves=4
num_cat=0
split_feature=9 9 9
split_gain=489.033 413.505 223.586
threshold=0.43616290877617003 0.48512267928542124 0.39049649716771156
decision_type=2 2 2
left_child=2 -2 -1
right_child=1 -3 -4
leaf_value=-0.0088747005872596985 0.1147738063796449 -0.020430538006415019 -0.10130352869555725
leaf_weight=22 18 18 20
leaf_count=22 18 18 20
internal_value=-0.00674416 0.0472469 -0.053072
internal_weight=78 36 42
internal_count=78 36 42
is_linear=0
shrinkage=0.02


Tree=218
num_leaves=4
num_cat=0
split_feature=9 9 0
split_gain=469.767 397.229 226.42
threshold=0.43616290877617003 0.48512267928542124 0.3634361952390664
decision_type=2 2 2
left_child=2 -2 -1
right_child=1 -3 -4
leaf_value=-0.10055082208481593 0.11249101632207797 -0.020024182809650567 -0.0075490496493033155
leaf_weight=20 18 18 22
leaf_count=20 18 18 22
internal_value=-0.00661019 0.0463061 -0.0520168
internal_weight=78 36 42
internal_count=78 36 42
is_linear=0
shrinkage=0.02


Tree=219
num_leaves=4
num_cat=0
split_feature=5 5 12
split_gain=431.108 393.292 203.175
threshold=0.15945806703181606 0.23159259895921039 0.053284301760603649
decision_type=2 2 2
left_child=-1 -2 -3
right_child=1 2 -4
leaf_value=0.068316895195801336 -0.1096738959731856 0.055574882726491602 -0.038757803705631269
leaf_weight=22 19 15.999999999999998 21
leaf_count=22 19 16 21
internal_value=-0.0064789 -0.035968 0.00202065
internal_weight=78 56 37
internal_count=78 56 37
is_linear=0
shrinkage=0.02


Tree=220
num_leaves=2
num_cat=0
split_feature=10
split_gain=2149.61
threshold=0.043719830333454182
decision_type=2
left_child=-1
right_child=-2
leaf_value=-0.19464504951549366 -0.33406669358333269
leaf_weight=21 25
leaf_count=21 25
internal_value=-0.271
internal_weight=46
internal_count=46
is_linear=0
shrinkage=0.01


Tree=221
num_leaves=2
num_cat=0
split_feature=10
split_gain=2106.91
threshold=0.043719830333454182
decision_type=2
left_child=-1
right_child=-2
leaf_value=-0.19270782285391999 -0.3307393383314885
leaf_weight=21 25
leaf_count=21 25
internal_value=-0.268301
internal_weight=46
internal_count=46
is_linear=0
shrinkage=0.01


Tree=222
num_leaves=2
num_cat=0
split_feature=10
split_gain=2065.05
threshold=0.043719830333454182
decision_type=2
left_child=-1
right_child=-2
leaf_value=-0.1907898832384444 -0.32744512079246491
leaf_weight=21 25
leaf_count=21 25
internal_value=-0.26563
internal_weight=46
internal_count=46
is_linear=0
shrinkage=0.01


Tree=223
num_leaves=2
num_cat=0
split_feature=10
split_gain=2024.02
threshold=0.043719830333454182
decision_type=2
left_child=-1
right_child=-2
leaf_value=-0.18889102614886388 -0.3241837172489242
leaf_weight=21 25
leaf_count=21 25
internal_value=-0.262985
internal_weight=46
internal_count=46
is_linear=0
shrinkage=0.01


Tree=224
num_leaves=2
num_cat=0
split_feature=10
split_gain=1983.8
threshold=0.043719830333454182
decision_type=2
left_child=-1
right_child=-2
leaf_value=-0.18701106582207699 -0.32095479334493077
leaf_weight=21 25
leaf_count=21 25
internal_value=-0.260367
internal_weight=46
internal_count=46
is_linear=0
shrinkage=0.01


Tree=225
num_leaves=2
num_cat=0
split_feature=12
split_gain=2228.25
threshold=0.034814434640732812
decision_type=2
left_child=-1
right_child=-2
leaf_value=-0.32744085111670729 -0.18214487762028878
leaf_weight=18 27
leaf_count=18 27
internal_value=-0.240883
internal_weight=45
internal_count=45
is_linear=0
shrinkage=0.01


Tree=226
num_leaves=2
num_cat=0
split_feature=12
split_gain=2184.21
threshold=0.034814434640732812
decision_type=2
left_child=-1
right_child=-2
leaf_value=-0.32418453174401379 -0.18033014941479447
leaf_weight=18 27
leaf_count=18 27
internal_value=-0.238485
internal_weight=45
internal_count=45
is_linear=0
shrinkage=0.01


Tree=227
num_leaves=2
num_cat=0
split_feature=12
split_gain=2141.04
threshold=0.034814434640732812
decision_type=2
left_child=-1
right_child=-2
leaf_value=-0.32096059830807849 -0.17853350107960153
leaf_weight=18 27
leaf_count=18 27
internal_value=-0.236112
internal_weight=45
internal_count=45
is_linear=0
shrinkage=0.01


Tree=228
num_leaves=2
num_cat=0
split_feature=12
split_gain=2098.72
threshold=0.034814434640732812
decision_type=2
left_child=-1
right_child=-2
leaf_value=-0.3177687209745797 -0.17675475542835642
leaf_weight=18 27
leaf_count=18 27
internal_value=-0.233762
internal_weight=45
internal_count=45
is_linear=0
shrinkage=0.01


Tree=229
num_leaves=2
num_cat=0
split_feature=12
split_gain=2057.24
threshold=0.034814434640732812
decision_type=2
left_child=-1
right_child=-2
leaf_value=-0.31460859414622266 -0.17499373087583869
leaf_weight=18 27
leaf_count=18 27
internal_value=-0.231436
internal_weight=45
internal_count=45
is_linear=0
shrinkage=0.01


Tree=230
num_leaves=3
num_cat=0
split_feature=9 5
split_gain=2107.22 107.099
threshold=0.46234290579837323 0.2509184140482697
decision_type=2 2
left_child=1 -1
right_child=-2 -3
leaf_value=-0.19809974954617729 -0.31315491681323621 -0.15475163927141405
leaf_weight=15.000000000000002 19 14.999999999999998
leaf_count=15 19 15
internal_value=-0.230373 -0.177045
internal_weight=49 30
internal_count=49 30
is_linear=0
shrinkage=0.01


Tree=231
num_leaves=3
num_cat=0
split_feature=1 11
split_gain=2192.03 37.5093
threshold=0.11312234085056939 3.4303342653976019
decision_type=2 2
left_child=-1 -2
right_child=1 -3
leaf_value=-0.31246463236384364 -0.18847902935861746 -0.15779999259291896
leaf_weight=19 15.000000000000002 14.999999999999998
leaf_count=19 15 15
internal_value=-0.228083 -0.173748
internal_weight=49 30
internal_count=49 30
is_linear=0
shrinkage=0.01


Tree=232
num_leaves=3
num_cat=0
split_feature=9 5
split_gain=2055.47 100.991
threshold=0.46234290579837323 0.2509184140482697
decision_type=2 2
left_child=1 -1
right_child=-2 -3
leaf_value=-0.19364331693838757 -0.30756389178530702 -0.15146312486256985
leaf_weight=15.000000000000002 19 14.999999999999998
leaf_count=15 19 15
internal_value=-0.225816 -0.17316
internal_weight=49 30
internal_count=49 30
is_linear=0
shrinkage=0.01


Tree=233
num_leaves=3
num_cat=0
split_feature=1 9
split_gain=2135.89 154.631
threshold=0.11312234085056939 0.42877688175750817
decision_type=2 2
left_child=-1 -2
right_child=1 -3
leaf_value=-0.30685569623377928 -0.14448112898315021 -0.19422289608330126
leaf_weight=19 15.000000000000002 14.999999999999998
leaf_count=19 15 15
internal_value=-0.223572 -0.169948
internal_weight=49 30
internal_count=49 30
is_linear=0
shrinkage=0.01


Tree=234
num_leaves=3
num_cat=0
split_feature=1 4
split_gain=2093.48 27.5616
threshold=0.11312234085056939 0.098434814077626012
decision_type=2 2
left_child=-1 -2
right_child=1 -3
leaf_value=-0.30380320144573431 -0.15367668695007727 -0.18166272839173578
leaf_weight=19 15.000000000000002 14.999999999999998
leaf_count=19 15 15
internal_value=-0.22135 -0.16826
internal_weight=49 30
internal_count=49 30
is_linear=0
shrinkage=0.01


Tree=235
num_leaves=3
num_cat=0
split_feature=10 1
split_gain=1922.47 1824.38
threshold=0.031819500864416074 0.27444936823376859
decision_type=2 2
left_child=-1 -2
right_child=1 -3
leaf_value=-0.13629564695800378 -0.34342525777237187 -0.19391692759827794
leaf_weight=14.999999999999998 18 15.999999999999998
leaf_count=15 18 16
internal_value=-0.232141 -0.273873
internal_weight=49 34
internal_count=49 34
is_linear=0
shrinkage=0.01


Tree=236
num_leaves=3
num_cat=0
split_feature=10 12
split_gain=1884.36 1240.54
threshold=0.031819500864416074 0.034814434640732812
decision_type=2 2
left_child=-1 -2
right_child=1 -3
leaf_value=-0.13494171805729141 -0.33618130441037763 -0.21175123573008162
leaf_weight=14.999999999999998 15.999999999999998 18
leaf_count=15 16 18
internal_value=-0.229834 -0.27115
internal_weight=49 34
internal_count=49 34
is_linear=0
shrinkage=0.01


Tree=237
num_leaves=3
num_cat=0
split_feature=10 12
split_gain=1847.02 1215.98
threshold=0.031819500864416074 0.034814434640732812
decision_type=2 2
left_child=-1 -2
right_child=1 -3
leaf_value=-0.13360123659601275 -0.33284037122074855 -0.20964542114932233
leaf_weight=14.999999999999998 15.999999999999998 18
leaf_count=15 16 18
internal_value=-0.22755 -0.268455
internal_weight=49 34
internal_count=49 34
is_linear=0
shrinkage=0.01


Tree=238
num_leaves=3
num_cat=0
split_feature=10 1
split_gain=1810.42 1750.75
threshold=0.031819500864416074 0.27444936823376859
decision_type=2 2
left_child=-1 -2
right_child=1 -3
leaf_value=-0.13227407152289586 -0.33390395991710009 -0.18749439784458702
leaf_weight=14.999999999999998 18 15.999999999999998
leaf_count=15 18 16
internal_value=-0.225288 -0.265787
internal_weight=49 34
internal_count=49 34
is_linear=0
shrinkage=0.01


Tree=239
num_leaves=3
num_cat=0
split_feature=1 9
split_gain=1727.3 179.105
threshold=0.11312234085056939 0.43668233307589038
decision_type=2 2
left_child=-1 -2
right_child=1 -3
